s680,s720,s760,s800,l680,l720,l760,l800,Normalized_O2_HHb,Heart_Rate
2429896.0,4508569.0,3908478.0,5720432.0,470717.0,894550.0,703861.0,1051111.0,0.017543859779834747,59.0
2555574.0,4740368.0,4109880.0,6021743.0,495871.0,940702.0,740383.0,1106141.0,0.05882352963089943,59.0
2555514.0,4741014.0,4110097.0,6021093.0,494950.0,939817.0,739364.0,1104789.0,0.017543859779834747,59.0
2557737.0,4743621.0,4113265.0,6028537.0,495914.0,941496.0,740031.0,1106472.0,0.017543859779834747,59.0
2557914.0,4741794.0,4111834.0,6026836.0,494431.0,938790.0,739019.0,1105016.0,0.017543859779834747,59.0
2559229.0,4745830.0,4115786.0,6032779.0,495681.0,940409.0,740376.0,1107769.0,0.017543859779834747,60.0
2557706.0,4743181.0,4113190.0,6029087.0,494934.0,939248.0,739332.0,1106034.0,0.017543859779834747,60.0
2557975.0,4745497.0,4117095.0,6035217.0,495047.0,940308.0,740625.0,1107384.0,0.017543859779834747,60.0
2558193.0,4744470.0,4115930.0,6032603.0,494049.0,939404.0,740220.0,1105367.0,0.017543859779834747,60.0
2559583.0,4747438.0,4119663.0,6040561.0,494866.0,940743.0,741610.0,1108901.0,0.017543859779834747,60.0
2558580.0,4743804.0,4115405.0,6036176.0,495266.0,940047.0,740099.0,1105625.0,0.017543859779834747,60.0
2559123.0,4746165.0,4116630.0,6040426.0,496175.0,941156.0,740818.0,1108575.0,0.017543859779834747,60.0
2555995.0,4741389.0,4113159.0,6034877.0,494567.0,939879.0,739874.0,1107941.0,0.0,60.0
2556461.0,4743571.0,4115806.0,6035735.0,495321.0,940484.0,740825.0,1108407.0,0.017543859779834747,61.0
2552979.0,4737851.0,4112845.0,6030197.0,493134.0,936717.0,737405.0,1103920.0,0.0,62.0
2555063.0,4740535.0,4113596.0,6035347.0,493401.0,936706.0,737659.0,1104301.0,0.017543859779834747,62.0
2553042.0,4740429.0,4113571.0,6035325.0,491748.0,936988.0,737833.0,1103181.0,0.017543859779834747,62.0
2552376.0,4738902.0,4112933.0,6032186.0,492366.0,935746.0,737657.0,1101885.0,0.017543859779834747,62.0
2550547.0,4737885.0,4113256.0,6031977.0,491518.0,936703.0,736737.0,1102475.0,0.0,62.0
2550469.0,4737459.0,4111451.0,6028530.0,491315.0,934713.0,736172.0,1099830.0,0.017543859779834747,62.0
2549937.0,4737045.0,4111143.0,6029452.0,491782.0,935556.0,736676.0,1100547.0,0.017543859779834747,62.0
2548840.0,4735743.0,4111190.0,6028558.0,491992.0,935615.0,735780.0,1100765.0,0.017543859779834747,62.0
2553153.0,4740798.0,4114807.0,6036392.0,494433.0,938299.0,736887.0,1103035.0,0.05882352963089943,62.0
2553717.0,4741908.0,4115913.0,6040539.0,492416.0,937679.0,739226.0,1104577.0,0.017543859779834747,62.0
2554221.0,4742180.0,4116687.0,6038080.0,493619.0,936895.0,736990.0,1103393.0,0.017543859779834747,62.0
2554242.0,4743797.0,4119454.0,6045218.0,493814.0,938528.0,739082.0,1105935.0,0.017543859779834747,62.0
2552481.0,4741060.0,4117016.0,6040916.0,492927.0,937427.0,738557.0,1105294.0,0.017543859779834747,62.0
2554634.0,4744261.0,4120226.0,6046052.0,495340.0,940333.0,739569.0,1107948.0,0.017543859779834747,62.0
2552727.0,4741446.0,4115095.0,6038826.0,493849.0,938643.0,738455.0,1105516.0,0.017543859779834747,61.0
2555489.0,4744291.0,4120159.0,6046119.0,494401.0,940252.0,740166.0,1107734.0,0.017543859779834747,61.0
2552029.0,4740420.0,4112885.0,6036084.0,492774.0,938729.0,739413.0,1104895.0,0.017543859779834747,61.0
2552003.0,4741091.0,4117097.0,6042024.0,494462.0,939283.0,739054.0,1107331.0,0.017543859779834747,61.0
2550547.0,4737625.0,4112503.0,6032540.0,492240.0,937754.0,738947.0,1103734.0,0.017543859779834747,60.0
2550757.0,4738311.0,4114242.0,6037095.0,492930.0,938135.0,738385.0,1106082.0,0.0,60.0
2550570.0,4737023.0,4111521.0,6032591.0,493359.0,938050.0,739058.0,1105689.0,0.017543859779834747,60.0
2550653.0,4738599.0,4114907.0,6036428.0,493399.0,938655.0,739544.0,1106576.0,0.017543859779834747,60.0
2549196.0,4737242.0,4112747.0,6033171.0,492510.0,938171.0,739745.0,1104639.0,0.017543859779834747,60.0
2550238.0,4738776.0,4113514.0,6037729.0,492688.0,938590.0,739900.0,1107111.0,0.017543859779834747,60.0
2549347.0,4736902.0,4113449.0,6033036.0,493422.0,937976.0,739953.0,1104723.0,0.0833333358168602,59.0
2549347.0,4736902.0,4113449.0,6033036.0,493422.0,937976.0,739953.0,1104723.0,0.0833333358168602,59.0
2548734.0,4736560.0,4113909.0,6036673.0,493026.0,939047.0,739821.0,1107009.0,0.017543859779834747,59.0
2546121.0,4732233.0,4109257.0,6029806.0,492114.0,937900.0,739181.0,1106124.0,0.0,59.0
2543368.0,4729067.0,4104291.0,6021673.0,492068.0,936558.0,737430.0,1103618.0,0.017543859779834747,58.0
2544955.0,4729440.0,4106838.0,6026688.0,491768.0,937955.0,740074.0,1106739.0,0.017543859779834747,58.0
2544039.0,4729448.0,4106239.0,6022889.0,493207.0,937866.0,739577.0,1105169.0,0.05882352963089943,57.0
2544813.0,4729807.0,4107759.0,6028195.0,492850.0,938723.0,740477.0,1107541.0,0.017543859779834747,57.0
2544490.0,4729485.0,4105692.0,6027181.0,493164.0,937860.0,739979.0,1107668.0,0.017543859779834747,57.0
2546234.0,4732824.0,4110831.0,6033703.0,494560.0,940393.0,741483.0,1110401.0,0.017543859779834747,57.0
2418823.0,4495515.0,3902651.0,5729144.0,468724.0,892352.0,703526.0,1053808.0,0.0,57.0
2419752.0,4495994.0,3905477.0,5732279.0,470028.0,893860.0,704581.0,1054581.0,0.017543859779834747,57.0
2544650.0,4731214.0,4109049.0,6029585.0,492325.0,939744.0,740513.0,1108340.0,0.0,57.0
2417650.0,4494362.0,3902467.0,5729711.0,468739.0,892368.0,704081.0,1054567.0,0.017543859779834747,57.0
2543308.0,4729458.0,4106409.0,6026725.0,492809.0,938354.0,739412.0,1107747.0,0.0,57.0
2543019.0,4729859.0,4107103.0,6027171.0,492949.0,938515.0,739318.0,1108492.0,0.0,57.0
2542478.0,4727352.0,4105412.0,6023053.0,491913.0,937148.0,738924.0,1105949.0,0.0,58.0
2541051.0,4727516.0,4104969.0,6023551.0,491829.0,936841.0,740028.0,1107520.0,0.017543859779834747,58.0
2540977.0,4724693.0,4103877.0,6023052.0,492177.0,936942.0,738329.0,1106862.0,0.0,58.0
2540775.0,4725023.0,4104410.0,6021540.0,491666.0,936794.0,739000.0,1106017.0,0.0,58.0
2539296.0,4723201.0,4102079.0,6020205.0,491661.0,935868.0,737788.0,1105817.0,0.0,58.0
2537478.0,4720836.0,4099744.0,6015972.0,491321.0,936922.0,738158.0,1105071.0,0.0,58.0
2535963.0,4720269.0,4097652.0,6012280.0,489399.0,935531.0,736970.0,1102656.0,0.0,58.0
2536967.0,4719518.0,4098326.0,6013202.0,492018.0,935681.0,737163.0,1103787.0,0.017543859779834747,58.0
2537415.0,4720358.0,4099654.0,6015460.0,491148.0,935629.0,738283.0,1103745.0,0.017543859779834747,58.0
2533672.0,4716024.0,4094333.0,6007511.0,489958.0,933685.0,736574.0,1101747.0,0.017543859779834747,58.0
2535153.0,4715938.0,4095663.0,6009524.0,488938.0,932627.0,737428.0,1102034.0,0.017543859779834747,58.0
2535153.0,4715938.0,4095663.0,6009524.0,488938.0,932627.0,737428.0,1102034.0,0.017543859779834747,58.0
2407554.0,4479238.0,3890160.0,5708976.0,464879.0,886789.0,699584.0,1048090.0,0.0,58.0
2533718.0,4714055.0,4092424.0,6005676.0,489973.0,933052.0,735618.0,1101852.0,0.0,58.0
2532150.0,4712511.0,4090989.0,6001850.0,487801.0,932721.0,735526.0,1100729.0,0.0,58.0
2530795.0,4708919.0,4088145.0,5998292.0,488363.0,932799.0,734632.0,1099012.0,0.0,58.0
2537586.0,4721652.0,4100960.0,6017376.0,489789.0,933300.0,735842.0,1101338.0,0.017543859779834747,58.0
2539915.0,4728243.0,4107610.0,6030075.0,490704.0,934156.0,737818.0,1105579.0,0.017543859779834747,58.0
2540936.0,4727064.0,4106639.0,6028209.0,490801.0,935061.0,736738.0,1103942.0,0.0,58.0
2544715.0,4733161.0,4113890.0,6040336.0,490554.0,937114.0,739758.0,1107355.0,0.0,58.0
2544632.0,4732910.0,4113045.0,6037694.0,491623.0,936549.0,739321.0,1106394.0,0.017543859779834747,58.0
2419564.0,4500012.0,3912498.0,5743658.0,468506.0,890658.0,703367.0,1053557.0,0.017543859779834747,58.0
2545806.0,4735611.0,4116278.0,6043397.0,491751.0,936306.0,740009.0,1106629.0,0.017543859779834747,59.0
2546929.0,4738762.0,4119546.0,6050188.0,491841.0,937492.0,739905.0,1109000.0,0.0,59.0
2546611.0,4736389.0,4116982.0,6045362.0,491347.0,936350.0,739808.0,1106803.0,0.017543859779834747,59.0
2418881.0,4503082.0,3914833.0,5748698.0,467368.0,890456.0,704291.0,1053083.0,0.017543859779834747,59.0
2547139.0,4738303.0,4119111.0,6050079.0,491547.0,936370.0,738325.0,1107921.0,0.0,59.0
2545140.0,4734888.0,4117457.0,6046649.0,491135.0,935820.0,739358.0,1108043.0,0.0,59.0
2542070.0,4729627.0,4112004.0,6037473.0,490189.0,933324.0,737766.0,1103268.0,0.017543859779834747,59.0
2540705.0,4727615.0,4109471.0,6034298.0,489394.0,933055.0,736936.0,1103194.0,0.017543859779834747,59.0
2537239.0,4721734.0,4104396.0,6024377.0,489009.0,930636.0,734568.0,1100233.0,0.017543859779834747,59.0
2535627.0,4719040.0,4101767.0,6021358.0,488353.0,930889.0,734806.0,1099571.0,0.017543859779834747,60.0
2405075.0,4478367.0,3890749.0,5708193.0,461850.0,882627.0,695781.0,1040926.0,0.0,60.0
2530365.0,4711561.0,4094433.0,6007142.0,486238.0,928403.0,733241.0,1094934.0,0.017543859779834747,60.0
2528086.0,4706181.0,4088418.0,5996037.0,484629.0,925524.0,730342.0,1091614.0,0.017543859779834747,60.0
2526095.0,4705820.0,4087432.0,5995170.0,484427.0,925551.0,730267.0,1091161.0,0.017543859779834747,60.0
2522673.0,4699227.0,4081379.0,5982918.0,483036.0,922775.0,727051.0,1085710.0,0.017543859779834747,60.0
2522698.0,4700293.0,4082004.0,5985623.0,483430.0,923862.0,728695.0,1089509.0,0.0,60.0
2522058.0,4696740.0,4079024.0,5980687.0,483832.0,921127.0,727211.0,1087023.0,0.017543859779834747,60.0
2521596.0,4697729.0,4082152.0,5984188.0,482583.0,922800.0,727699.0,1086776.0,0.017543859779834747,60.0
2520575.0,4696985.0,4080210.0,5980280.0,481735.0,922782.0,726699.0,1085729.0,0.0,60.0
2521462.0,4698739.0,4082753.0,5987766.0,483517.0,923205.0,728641.0,1088731.0,0.017543859779834747,60.0
2521788.0,4697732.0,4081062.0,5983359.0,483757.0,922910.0,727538.0,1087491.0,0.017543859779834747,60.0
2524064.0,4702647.0,4085189.0,5991482.0,484413.0,924587.0,728866.0,1091471.0,0.0,59.0
2521555.0,4696626.0,4079414.0,5981464.0,484009.0,922280.0,726316.0,1086380.0,0.017543859779834747,59.0
2393101.0,4460109.0,3874643.0,5681505.0,458217.0,875180.0,690086.0,1031837.0,0.017543859779834747,59.0
2516625.0,4690026.0,4072017.0,5968432.0,480894.0,919072.0,724197.0,1081724.0,0.017543859779834747,59.0
2515669.0,4688671.0,4071339.0,5968952.0,481999.0,920432.0,725444.0,1083771.0,0.017543859779834747,59.0
2511943.0,4682777.0,4066031.0,5959660.0,480278.0,918724.0,724005.0,1081916.0,0.0,59.0
2515446.0,4688151.0,4072321.0,5971690.0,483348.0,922002.0,727566.0,1086854.0,0.017543859779834747,59.0
2514566.0,4686753.0,4070957.0,5968443.0,482586.0,921486.0,726138.0,1086025.0,0.0,59.0
2516681.0,4690808.0,4072824.0,5972421.0,483915.0,923036.0,727681.0,1087544.0,0.017543859779834747,59.0
2514378.0,4686637.0,4069647.0,5964830.0,481600.0,920777.0,726191.0,1084375.0,0.017543859779834747,59.0
2516762.0,4690281.0,4075532.0,5974866.0,482148.0,922478.0,727814.0,1087797.0,0.0,59.0
2516822.0,4689582.0,4072634.0,5971501.0,480961.0,920560.0,726873.0,1086122.0,0.0,59.0
2519032.0,4693826.0,4077399.0,5979635.0,481806.0,923669.0,728091.0,1087102.0,0.0,60.0
2519270.0,4694212.0,4077958.0,5981322.0,482952.0,922774.0,727756.0,1088217.0,0.017543859779834747,60.0
2520683.0,4697978.0,4081990.0,5985819.0,484153.0,924338.0,728298.0,1088568.0,0.017543859779834747,60.0
2522560.0,4700314.0,4083976.0,5993721.0,484662.0,924987.0,728135.0,1090581.0,0.0,60.0
2396289.0,4465242.0,3879685.0,5691764.0,460468.0,878873.0,692552.0,1035775.0,0.017543859779834747,60.0
2396289.0,4465242.0,3879685.0,5691764.0,460468.0,878873.0,692552.0,1035775.0,0.017543859779834747,60.0
2523161.0,4701670.0,4085730.0,5994439.0,484174.0,924370.0,728909.0,1091876.0,0.0,61.0
2522763.0,4701610.0,4085693.0,5994979.0,483820.0,925440.0,730555.0,1093293.0,0.0,61.0
2521185.0,4698792.0,4081933.0,5987484.0,483955.0,924193.0,728636.0,1090165.0,0.0,61.0
2519897.0,4696108.0,4080425.0,5984730.0,483300.0,924187.0,728481.0,1089995.0,0.0,61.0
2518225.0,4693315.0,4076713.0,5978664.0,482761.0,922708.0,728207.0,1089689.0,0.0,61.0
2519804.0,4694384.0,4078858.0,5983102.0,484045.0,924009.0,728842.0,1090075.0,0.017543859779834747,61.0
2517282.0,4691377.0,4075618.0,5977307.0,484439.0,922801.0,728040.0,1089603.0,0.017543859779834747,62.0
2519700.0,4696584.0,4081929.0,5987240.0,483494.0,925007.0,729860.0,1093722.0,0.0,62.0
2518694.0,4694644.0,4079245.0,5982580.0,483177.0,922791.0,729314.0,1090246.0,0.017543859779834747,62.0
2520926.0,4699460.0,4085612.0,5992535.0,484212.0,926091.0,730786.0,1093800.0,0.0,62.0
2520924.0,4697894.0,4081585.0,5987702.0,485271.0,924767.0,729065.0,1092581.0,0.0,62.0
2523273.0,4703303.0,4087729.0,5997883.0,484165.0,926005.0,731307.0,1095335.0,0.0,62.0
2521596.0,4698859.0,4083001.0,5988494.0,484649.0,925820.0,730283.0,1092950.0,0.0,62.0
2522273.0,4701275.0,4086193.0,5996423.0,483864.0,925663.0,730354.0,1093752.0,0.0,62.0
2520820.0,4696533.0,4080823.0,5985654.0,484956.0,925016.0,727994.0,1090550.0,0.0,62.0
2394505.0,4463483.0,3879286.0,5690596.0,460115.0,879321.0,693547.0,1036471.0,0.017543859779834747,62.0
2393147.0,4459149.0,3874785.0,5681818.0,459240.0,877568.0,692399.0,1033875.0,0.017543859779834747,62.0
2518203.0,4694834.0,4080225.0,5983814.0,483480.0,923673.0,728252.0,1091348.0,0.0,62.0
2517035.0,4691617.0,4076817.0,5979554.0,482242.0,922928.0,727066.0,1089046.0,0.0,62.0
2517522.0,4692606.0,4077260.0,5981684.0,483105.0,922996.0,728342.0,1090017.0,0.0,62.0
2514933.0,4688401.0,4073350.0,5974261.0,482604.0,922765.0,727887.0,1088132.0,0.0,62.0
2390018.0,4455182.0,3872023.0,5679369.0,458586.0,877203.0,692246.0,1035776.0,0.0,61.0
2387624.0,4449905.0,3866500.0,5668875.0,460057.0,876166.0,691756.0,1033606.0,0.05882352963089943,61.0
2512967.0,4685333.0,4071460.0,5971247.0,483403.0,923115.0,727773.0,1089898.0,0.0,61.0
2510707.0,4678914.0,4064787.0,5958259.0,482154.0,921728.0,726035.0,1085631.0,0.0,61.0
2510707.0,4678914.0,4064787.0,5958259.0,482154.0,921728.0,726035.0,1085631.0,0.0,61.0
2511328.0,4680843.0,4066312.0,5960607.0,483536.0,922251.0,727493.0,1086234.0,0.017543859779834747,61.0
2511559.0,4680037.0,4065118.0,5961361.0,483253.0,922682.0,727800.0,1088447.0,0.0,60.0
2510523.0,4678896.0,4064142.0,5955619.0,483389.0,922272.0,728217.0,1087842.0,0.017543859779834747,60.0
2512325.0,4682623.0,4069352.0,5965029.0,483377.0,922625.0,728481.0,1089641.0,0.0,60.0
2388682.0,4449072.0,3864777.0,5664905.0,460045.0,877634.0,692542.0,1035002.0,0.017543859779834747,60.0
2516049.0,4689049.0,4073740.0,5973891.0,485045.0,926440.0,730574.0,1092211.0,0.017543859779834747,59.0
2515478.0,4686692.0,4072156.0,5969936.0,484254.0,924924.0,730616.0,1091719.0,0.017543859779834747,59.0
2516203.0,4690836.0,4076149.0,5977863.0,484795.0,926765.0,731528.0,1094260.0,0.0,59.0
2515791.0,4686996.0,4071964.0,5969470.0,484537.0,925644.0,729710.0,1090654.0,0.0,58.0
2516293.0,4690130.0,4074761.0,5974734.0,485371.0,925841.0,729918.0,1093342.0,0.0,58.0
2387586.0,4450481.0,3865762.0,5665860.0,458798.0,878025.0,692210.0,1034192.0,0.0,58.0
2514853.0,4685598.0,4071618.0,5969066.0,485437.0,925034.0,730381.0,1092255.0,0.017543859779834747,58.0
2511993.0,4681186.0,4067497.0,5959743.0,483108.0,923726.0,729081.0,1088082.0,0.017543859779834747,58.0
2512602.0,4682375.0,4068945.0,5965730.0,484807.0,924200.0,729282.0,1091846.0,0.0,59.0
2509891.0,4677977.0,4063570.0,5954222.0,483053.0,922535.0,727998.0,1088152.0,0.0,59.0
2511677.0,4679725.0,4065922.0,5960662.0,483329.0,923560.0,728212.0,1089894.0,0.0,59.0
2508102.0,4674372.0,4059813.0,5948314.0,482328.0,922986.0,728872.0,1087630.0,0.017543859779834747,59.0
2509175.0,4677134.0,4061135.0,5953641.0,482724.0,923076.0,728150.0,1089175.0,0.0,59.0
2506784.0,4670341.0,4057009.0,5943245.0,482512.0,921795.0,726770.0,1085902.0,0.0,59.0
2507966.0,4673959.0,4059387.0,5949882.0,482537.0,921893.0,728418.0,1088277.0,0.017543859779834747,59.0
2381965.0,4437580.0,3853612.0,5644886.0,457300.0,874159.0,690150.0,1030647.0,0.0,59.0
2509115.0,4674604.0,4060993.0,5951806.0,483703.0,922945.0,728757.0,1089555.0,0.0,59.0
2508316.0,4674035.0,4060484.0,5947192.0,482616.0,921524.0,727325.0,1087044.0,0.0,59.0
2510320.0,4678068.0,4064364.0,5956255.0,482725.0,922611.0,728417.0,1089891.0,0.0,59.0
2510320.0,4678068.0,4064364.0,5956255.0,482725.0,922611.0,728417.0,1089891.0,0.0,59.0
2511716.0,4679397.0,4065303.0,5956743.0,484148.0,923260.0,728811.0,1089975.0,0.0,59.0
2511189.0,4679481.0,4066893.0,5957751.0,483837.0,923439.0,730202.0,1088803.0,0.017543859779834747,59.0
2512485.0,4682078.0,4068816.0,5963781.0,484177.0,925232.0,730733.0,1091596.0,0.017543859779834747,59.0
2511712.0,4679995.0,4066856.0,5958350.0,483663.0,923735.0,728446.0,1090318.0,0.0,59.0
2510604.0,4680792.0,4067457.0,5959543.0,482676.0,923507.0,729988.0,1090873.0,0.0,59.0
2386313.0,4444770.0,3860129.0,5656393.0,459758.0,876915.0,692246.0,1035017.0,0.0,59.0
2509413.0,4677603.0,4064226.0,5955203.0,483657.0,922925.0,729065.0,1089508.0,0.017543859779834747,59.0
2383283.0,4441684.0,3859598.0,5651947.0,458055.0,876544.0,691281.0,1033160.0,0.0,59.0
2507896.0,4675651.0,4060850.0,5950099.0,481769.0,922809.0,727753.0,1088651.0,0.0,59.0
2384565.0,4442911.0,3859690.0,5653401.0,459870.0,876446.0,692065.0,1034807.0,0.0,59.0
2497383.0,4655752.0,4045246.0,5923046.0,479422.0,917545.0,725193.0,1083244.0,0.0,59.0
2500065.0,4659003.0,4046331.0,5925465.0,479482.0,918003.0,724564.0,1083051.0,0.0,59.0
2498483.0,4657005.0,4044131.0,5923859.0,480457.0,917214.0,723740.0,1082835.0,0.0,59.0
2493479.0,4645012.0,4032586.0,5904277.0,479355.0,913794.0,720311.0,1076712.0,0.0,58.0
2493703.0,4650245.0,4038956.0,5911295.0,478140.0,914197.0,721351.0,1076863.0,0.0,58.0
2489992.0,4639822.0,4030004.0,5897042.0,475866.0,909198.0,716971.0,1070136.0,0.0,59.0
2491811.0,4644570.0,4031944.0,5902225.0,476592.0,912249.0,718560.0,1072722.0,0.0,59.0
2492314.0,4644775.0,4033104.0,5901940.0,477708.0,911430.0,719098.0,1073664.0,0.0,59.0
2492040.0,4644845.0,4033595.0,5903360.0,477346.0,911030.0,718199.0,1073363.0,0.0,59.0
2494765.0,4650715.0,4039948.0,5913071.0,478468.0,912921.0,721047.0,1076274.0,0.017543859779834747,59.0
2493941.0,4647500.0,4034795.0,5905460.0,476933.0,912146.0,718117.0,1072651.0,0.0,59.0
2495865.0,4650036.0,4039898.0,5914006.0,477907.0,912725.0,720857.0,1075790.0,0.0,59.0
2493828.0,4647425.0,4036227.0,5907364.0,477350.0,911490.0,718770.0,1072651.0,0.0,59.0
2494275.0,4650164.0,4038336.0,5912511.0,477429.0,912856.0,719800.0,1075162.0,0.0,60.0
2493515.0,4647046.0,4033648.0,5902583.0,477624.0,910979.0,717642.0,1071712.0,0.0,60.0
2493515.0,4647046.0,4033648.0,5902583.0,477624.0,910979.0,717642.0,1071712.0,0.0,61.0
2493824.0,4649798.0,4039558.0,5912157.0,476461.0,912049.0,719126.0,1074054.0,0.0,61.0
2491401.0,4645146.0,4034746.0,5904941.0,477303.0,911422.0,718709.0,1072872.0,0.0,61.0
2488769.0,4639706.0,4027172.0,5891754.0,475069.0,908386.0,715084.0,1067494.0,0.0,61.0
2488081.0,4639979.0,4029213.0,5895567.0,474384.0,907894.0,716327.0,1069803.0,0.0,61.0
2484469.0,4633294.0,4021128.0,5879401.0,473978.0,907151.0,713654.0,1063379.0,0.0,61.0
2360106.0,4400823.0,3818713.0,5586579.0,450255.0,860886.0,677271.0,1010740.0,0.0,62.0
2480387.0,4626471.0,4013695.0,5868455.0,471415.0,904184.0,711705.0,1059223.0,0.0,62.0
2480806.0,4628365.0,4016220.0,5872808.0,472279.0,905128.0,712213.0,1062140.0,0.0,62.0
2481766.0,4631229.0,4017527.0,5873809.0,473112.0,904763.0,711156.0,1060593.0,0.0,62.0
2483837.0,4632010.0,4020539.0,5880666.0,472745.0,904503.0,713076.0,1062108.0,0.017543859779834747,62.0
2476710.0,4622683.0,4009635.0,5861961.0,471293.0,902143.0,710277.0,1056914.0,0.017543859779834747,62.0
2481167.0,4629737.0,4016896.0,5875982.0,472260.0,904894.0,712023.0,1062674.0,0.0,62.0
2482769.0,4630910.0,4019484.0,5876133.0,473042.0,905361.0,712509.0,1062218.0,0.0,62.0
2359623.0,4400957.0,3820152.0,5586101.0,450489.0,861356.0,678191.0,1012117.0,0.0,62.0
2478651.0,4626112.0,4013711.0,5867106.0,472563.0,906112.0,713229.0,1061929.0,0.0,62.0
2478887.0,4624948.0,4014525.0,5869420.0,473950.0,906440.0,712907.0,1063446.0,0.0,62.0
2477686.0,4622163.0,4010021.0,5863307.0,473383.0,906336.0,713346.0,1061880.0,0.017543859779834747,62.0
2356719.0,4396034.0,3813601.0,5578229.0,450026.0,861466.0,678078.0,1011956.0,0.0,62.0
2480305.0,4627585.0,4015721.0,5871090.0,474246.0,907624.0,714900.0,1065716.0,0.0,61.0
2480924.0,4626882.0,4015890.0,5872885.0,474150.0,907799.0,715385.0,1065338.0,0.017543859779834747,61.0
2482598.0,4629366.0,4018131.0,5877724.0,474413.0,908664.0,716576.0,1067931.0,0.0,61.0
2482372.0,4629255.0,4017679.0,5876241.0,476348.0,909710.0,716063.0,1067984.0,0.0,61.0
2484833.0,4633682.0,4022735.0,5884625.0,476723.0,911305.0,718259.0,1072289.0,0.0,61.0
2483418.0,4631207.0,4019248.0,5877554.0,476220.0,910033.0,717570.0,1069586.0,0.017543859779834747,61.0
2485323.0,4634017.0,4022416.0,5884711.0,476500.0,912077.0,719361.0,1072748.0,0.0,61.0
2483728.0,4630704.0,4018746.0,5878458.0,476344.0,911691.0,718687.0,1071623.0,0.0,61.0
2484608.0,4633653.0,4022030.0,5883684.0,477838.0,913282.0,720062.0,1074619.0,0.0,61.0
2484457.0,4631393.0,4020818.0,5881485.0,478080.0,913276.0,720121.0,1074207.0,0.0,61.0
2484344.0,4633012.0,4021266.0,5884084.0,477849.0,913132.0,720452.0,1074758.0,0.0,62.0
2486171.0,4634493.0,4024176.0,5887159.0,479334.0,914974.0,720580.0,1077295.0,0.0,62.0
2361896.0,4403878.0,3823862.0,5594219.0,455266.0,869247.0,684600.0,1022993.0,0.0,62.0
2488068.0,4638714.0,4027844.0,5895869.0,479801.0,916142.0,722876.0,1080500.0,0.0,62.0
2488190.0,4637669.0,4027721.0,5893093.0,478675.0,915339.0,723111.0,1079304.0,0.0,63.0
2489776.0,4641959.0,4032123.0,5900126.0,480320.0,917821.0,724509.0,1081457.0,0.0,63.0
2365130.0,4408264.0,3828792.0,5600941.0,454902.0,870282.0,687772.0,1025794.0,0.0,63.0
2490055.0,4642516.0,4032680.0,5901365.0,480029.0,917057.0,724296.0,1083028.0,0.0,64.0
2487993.0,4638151.0,4027494.0,5892320.0,479375.0,914888.0,721879.0,1079253.0,0.0,64.0
2487732.0,4636735.0,4026069.0,5888865.0,479211.0,914386.0,720674.0,1076989.0,0.0,64.0
2485071.0,4631915.0,4022552.0,5883500.0,477866.0,913543.0,721254.0,1074483.0,0.017543859779834747,64.0
2482727.0,4627883.0,4015632.0,5871144.0,477308.0,911494.0,718038.0,1070845.0,0.0,65.0
2481699.0,4626190.0,4015012.0,5871069.0,475722.0,909636.0,717819.0,1070307.0,0.0,65.0
2353251.0,4388855.0,3808037.0,5564840.0,450297.0,862930.0,679976.0,1013234.0,0.0,65.0
2476206.0,4618587.0,4007456.0,5858701.0,474189.0,908424.0,715139.0,1066494.0,0.0,65.0
2349638.0,4381566.0,3800249.0,5551973.0,450139.0,861608.0,677528.0,1009757.0,0.0,65.0
2471153.0,4609396.0,3997488.0,5840188.0,472529.0,905787.0,712876.0,1061140.0,0.0,65.0
2348619.0,4379971.0,3798260.0,5551063.0,450481.0,861338.0,676904.0,1009195.0,0.0,65.0
2470039.0,4606775.0,3995825.0,5836417.0,473236.0,903766.0,710828.0,1060084.0,0.0,65.0
2474395.0,4616604.0,4004678.0,5852291.0,474117.0,907660.0,713716.0,1064797.0,0.0,65.0
2472137.0,4611392.0,4000339.0,5845797.0,473427.0,905516.0,713353.0,1064076.0,0.0,65.0
2473796.0,4615621.0,4003827.0,5852406.0,472881.0,907198.0,715489.0,1065607.0,0.0,66.0
2473796.0,4615621.0,4003827.0,5852406.0,472881.0,907198.0,715489.0,1065607.0,0.0,66.0
2475899.0,4617447.0,4005980.0,5856735.0,473834.0,907885.0,715310.0,1066430.0,0.0,66.0
2474393.0,4617698.0,4006318.0,5855992.0,473660.0,907324.0,714198.0,1065056.0,0.0,67.0
2474354.0,4614706.0,4002978.0,5850656.0,472694.0,905431.0,713016.0,1063101.0,0.0,67.0
2476195.0,4615691.0,4006704.0,5855908.0,473409.0,906633.0,714992.0,1065275.0,0.0,67.0
2473060.0,4611618.0,4001509.0,5847058.0,472723.0,905324.0,712410.0,1063209.0,0.0,68.0
2472120.0,4609889.0,3999562.0,5840894.0,472301.0,904995.0,711890.0,1060794.0,0.0,68.0
2469986.0,4607989.0,3998202.0,5839094.0,472685.0,905754.0,713182.0,1062178.0,0.0,68.0
2467948.0,4603085.0,3991785.0,5827990.0,472167.0,903401.0,711049.0,1059739.0,0.0,68.0
2467693.0,4603226.0,3991593.0,5829608.0,472318.0,903118.0,710519.0,1059907.0,0.0,68.0
2465205.0,4596390.0,3984330.0,5816898.0,472220.0,902188.0,709912.0,1055953.0,0.017543859779834747,68.0
2463703.0,4597524.0,3986544.0,5819117.0,470640.0,902582.0,710055.0,1057685.0,0.0,69.0
2461976.0,4593179.0,3980591.0,5809211.0,470632.0,899952.0,709199.0,1054646.0,0.017543859779834747,69.0
2462264.0,4592667.0,3980416.0,5810045.0,470431.0,901121.0,708452.0,1054325.0,0.0,69.0
2463197.0,4592378.0,3980967.0,5811400.0,471311.0,899845.0,708506.0,1053928.0,0.017543859779834747,69.0
2462497.0,4590683.0,3978514.0,5807289.0,470333.0,899586.0,705869.0,1052597.0,0.0,69.0
2464446.0,4595223.0,3985145.0,5816897.0,470240.0,900481.0,708179.0,1055091.0,0.0,69.0
2464002.0,4595731.0,3984685.0,5814853.0,470011.0,899404.0,708902.0,1054815.0,0.0,69.0
2466910.0,4599505.0,3988488.0,5823538.0,471872.0,901684.0,709179.0,1056558.0,0.0,69.0
2468170.0,4602728.0,3991697.0,5827989.0,471917.0,903020.0,710693.0,1057415.0,0.0,69.0
2468042.0,4602940.0,3991531.0,5827045.0,471272.0,902172.0,710013.0,1056410.0,0.0,69.0
2470839.0,4607971.0,3998075.0,5838307.0,471813.0,903339.0,711959.0,1059609.0,0.0,69.0
2470629.0,4606631.0,3995029.0,5833035.0,472655.0,903670.0,710771.0,1056405.0,0.017543859779834747,69.0
2471190.0,4608972.0,3997757.0,5837959.0,471846.0,902049.0,711216.0,1059321.0,0.0,69.0
2470235.0,4604558.0,3994897.0,5831636.0,470794.0,902232.0,710760.0,1057341.0,0.0,69.0
2469273.0,4603499.0,3992492.0,5828205.0,472915.0,901917.0,709768.0,1055542.0,0.017543859779834747,69.0
2469273.0,4603499.0,3992492.0,5828205.0,472915.0,901917.0,709768.0,1055542.0,0.017543859779834747,69.0
2468137.0,4601362.0,3992168.0,5828297.0,470685.0,900582.0,710494.0,1056547.0,0.017543859779834747,69.0
2464282.0,4596746.0,3987062.0,5818059.0,469716.0,899534.0,708012.0,1053009.0,0.0,69.0
2461730.0,4590882.0,3979333.0,5806563.0,470096.0,897672.0,705987.0,1049195.0,0.017543859779834747,69.0
2461940.0,4591625.0,3981826.0,5811292.0,468743.0,897914.0,705230.0,1050575.0,0.0,69.0
2458792.0,4587088.0,3977366.0,5801268.0,469382.0,896101.0,703819.0,1047190.0,0.0,69.0
2458526.0,4586021.0,3975103.0,5798930.0,468287.0,894906.0,704444.0,1046667.0,0.017543859779834747,69.0
2458514.0,4585261.0,3973339.0,5797484.0,468406.0,896626.0,703888.0,1046225.0,0.0,69.0
2456749.0,4581085.0,3970832.0,5790412.0,467813.0,894066.0,702990.0,1044009.0,0.017543859779834747,69.0
2458878.0,4586017.0,3974632.0,5798434.0,467969.0,895822.0,703692.0,1046391.0,0.0,68.0
2457303.0,4583099.0,3970628.0,5789676.0,466818.0,894674.0,702564.0,1042691.0,0.017543859779834747,68.0
2336924.0,4357894.0,3776570.0,5508210.0,444520.0,850361.0,668773.0,992875.0,0.017543859779834747,68.0
2457352.0,4583951.0,3972339.0,5793869.0,466456.0,895340.0,702213.0,1045503.0,0.0,68.0
2459350.0,4586498.0,3976581.0,5798767.0,468300.0,895552.0,704449.0,1045573.0,0.017543859779834747,68.0
2459800.0,4586558.0,3977150.0,5800439.0,468333.0,895640.0,703764.0,1045895.0,0.0,68.0
2460846.0,4589377.0,3977835.0,5802162.0,467683.0,896798.0,705080.0,1046163.0,0.017543859779834747,68.0
2461883.0,4590956.0,3981224.0,5808939.0,468715.0,896334.0,704285.0,1048261.0,0.0,68.0
2462876.0,4591276.0,3981426.0,5805266.0,469026.0,896550.0,704434.0,1047939.0,0.0,68.0
2463485.0,4594987.0,3985291.0,5813652.0,468565.0,899555.0,707361.0,1051306.0,0.0,68.0
2462807.0,4592046.0,3981054.0,5807735.0,470035.0,897378.0,705688.0,1049251.0,0.017543859779834747,68.0
2463418.0,4594308.0,3983938.0,5812094.0,469034.0,898958.0,707765.0,1051435.0,0.0,67.0
2461276.0,4588020.0,3977813.0,5800630.0,468096.0,897162.0,705163.0,1047618.0,0.0,67.0
2460603.0,4588694.0,3978548.0,5803887.0,469126.0,898438.0,706279.0,1050055.0,0.0,67.0
2334131.0,4353209.0,3773627.0,5502905.0,445032.0,850821.0,669357.0,995687.0,0.0,66.0
2457496.0,4585167.0,3973170.0,5797468.0,468612.0,897271.0,704419.0,1049448.0,0.0,66.0
2457496.0,4585167.0,3973170.0,5797468.0,468612.0,897271.0,704419.0,1049448.0,0.0,66.0
2458039.0,4582762.0,3972130.0,5794695.0,468509.0,895728.0,704671.0,1048444.0,0.0,66.0
2458214.0,4584372.0,3972957.0,5796945.0,468456.0,897116.0,705978.0,1049579.0,0.0,65.0
2460192.0,4586565.0,3976725.0,5801781.0,468624.0,898024.0,706617.0,1050623.0,0.0,65.0
2337673.0,4357087.0,3777837.0,5512236.0,447008.0,853965.0,671533.0,999458.0,0.0,65.0
2460749.0,4588857.0,3978286.0,5804335.0,469711.0,899909.0,706741.0,1052132.0,0.0,65.0
2462456.0,4590735.0,3979575.0,5807987.0,470157.0,900165.0,707257.0,1053645.0,0.0,65.0
2463882.0,4593280.0,3982674.0,5813461.0,471755.0,901192.0,708847.0,1054142.0,0.017543859779834747,65.0
2464307.0,4595235.0,3985546.0,5814865.0,471486.0,901799.0,709759.0,1055827.0,0.0,65.0
2465415.0,4597515.0,3988372.0,5821616.0,470659.0,900831.0,709979.0,1056310.0,0.0,65.0
2465642.0,4600432.0,3989161.0,5823005.0,471015.0,902994.0,711031.0,1057743.0,0.0,64.0
2467287.0,4599811.0,3991925.0,5827300.0,472858.0,903224.0,712098.0,1059325.0,0.017543859779834747,64.0
2469162.0,4602733.0,3993941.0,5831745.0,473055.0,903830.0,712349.0,1060953.0,0.0,64.0
2468849.0,4600734.0,3990992.0,5826704.0,473342.0,904910.0,712156.0,1058789.0,0.017543859779834747,63.0
2468820.0,4601042.0,3992735.0,5829980.0,473275.0,904931.0,712976.0,1061919.0,0.0,63.0
2464972.0,4594799.0,3984477.0,5815763.0,472882.0,903039.0,710469.0,1057450.0,0.0,63.0
2464044.0,4593384.0,3985188.0,5816955.0,472519.0,903081.0,710629.0,1057867.0,0.0,63.0
2463502.0,4588035.0,3978234.0,5805670.0,471997.0,901074.0,708886.0,1056102.0,0.0,63.0
2459065.0,4585670.0,3974343.0,5798336.0,470954.0,900511.0,708795.0,1053986.0,0.0,63.0
2458321.0,4584046.0,3973576.0,5797478.0,471013.0,901211.0,709401.0,1054627.0,0.0,63.0
2455667.0,4579101.0,3968376.0,5787003.0,470139.0,898694.0,707814.0,1051388.0,0.017543859779834747,63.0
2457898.0,4582085.0,3972812.0,5794592.0,470131.0,899933.0,708569.0,1054515.0,0.0,63.0
2455689.0,4577032.0,3966278.0,5782508.0,468815.0,898093.0,705885.0,1048671.0,0.0,63.0
2455465.0,4579811.0,3968655.0,5786234.0,469626.0,898175.0,707248.0,1049784.0,0.017543859779834747,63.0
2332705.0,4348714.0,3768834.0,5493657.0,445179.0,851999.0,669074.0,993620.0,0.0,64.0
2455055.0,4576454.0,3965154.0,5781462.0,468798.0,896174.0,705173.0,1046491.0,0.017543859779834747,64.0
2455055.0,4576454.0,3965154.0,5781462.0,468798.0,896174.0,705173.0,1046491.0,0.017543859779834747,64.0
2456580.0,4580263.0,3971000.0,5789572.0,469358.0,897373.0,704791.0,1048065.0,0.0,64.0
2457892.0,4581964.0,3973442.0,5795972.0,469305.0,897307.0,705481.0,1048408.0,0.017543859779834747,65.0
2456742.0,4582258.0,3973981.0,5793874.0,468156.0,896146.0,705559.0,1047119.0,0.017543859779834747,65.0
2458491.0,4583983.0,3975613.0,5797418.0,468481.0,896614.0,705222.0,1047633.0,0.0,66.0
2458616.0,4585431.0,3977866.0,5802229.0,467355.0,895891.0,704735.0,1046979.0,0.0,66.0
2458009.0,4583587.0,3974549.0,5797012.0,468807.0,895610.0,704267.0,1046083.0,0.017543859779834747,66.0
2460338.0,4586526.0,3979852.0,5805113.0,468847.0,897835.0,705917.0,1049320.0,0.0,66.0
2456116.0,4580165.0,3971067.0,5792234.0,468344.0,895337.0,702483.0,1044846.0,0.0,67.0
2456556.0,4581714.0,3973903.0,5798340.0,468394.0,895336.0,703996.0,1046780.0,0.017543859779834747,67.0
2453127.0,4574242.0,3964898.0,5783003.0,467397.0,894468.0,701564.0,1042902.0,0.0,67.0
2453781.0,4577334.0,3969245.0,5790161.0,467858.0,895412.0,703448.0,1045770.0,0.0,67.0
2327951.0,4341800.0,3762855.0,5487933.0,443622.0,848318.0,666711.0,991181.0,0.0,68.0
2452083.0,4573543.0,3966528.0,5784102.0,466925.0,893585.0,703476.0,1045716.0,0.0,68.0
2450273.0,4570260.0,3961758.0,5778741.0,466974.0,893258.0,702481.0,1043388.0,0.017543859779834747,68.0
2451797.0,4573334.0,3965424.0,5783135.0,467233.0,894571.0,703589.0,1044108.0,0.017543859779834747,68.0
2451218.0,4571103.0,3962694.0,5781531.0,466922.0,894058.0,702473.0,1044154.0,0.0,68.0
2451471.0,4572330.0,3963803.0,5779859.0,467729.0,894605.0,702765.0,1044107.0,0.0,68.0
2452740.0,4574463.0,3966494.0,5785220.0,467662.0,895245.0,705053.0,1046597.0,0.017543859779834747,67.0
2454016.0,4575322.0,3966857.0,5784578.0,468236.0,896705.0,704744.0,1046307.0,0.017543859779834747,67.0
2456589.0,4579772.0,3971644.0,5792745.0,470323.0,898600.0,706827.0,1049944.0,0.017543859779834747,67.0
2457012.0,4580230.0,3972481.0,5793323.0,469335.0,898414.0,706750.0,1049473.0,0.017543859779834747,67.0
2459598.0,4585214.0,3977814.0,5802606.0,470922.0,900341.0,708278.0,1053570.0,0.0,66.0
2462013.0,4587378.0,3978343.0,5804122.0,472670.0,901938.0,710209.0,1055046.0,0.017543859779834747,65.0
2463117.0,4589983.0,3981681.0,5810304.0,473040.0,904072.0,711686.0,1058462.0,0.0,65.0
2460720.0,4585234.0,3975665.0,5800453.0,472608.0,902226.0,709729.0,1056786.0,0.0,65.0
2461058.0,4582466.0,3973458.0,5795224.0,472827.0,901851.0,710690.0,1055342.0,0.017543859779834747,65.0
2457394.0,4578393.0,3970060.0,5788262.0,471688.0,901888.0,710164.0,1054377.0,0.017543859779834747,65.0
2454269.0,4573535.0,3963724.0,5777799.0,471101.0,901459.0,710364.0,1053815.0,0.017543859779834747,65.0
2487696.0,4630662.0,4017212.0,5867024.0,488000.0,929101.0,732711.0,1091429.0,0.017543859779834747,64.0
2463354.0,4584891.0,3985457.0,5805236.0,461163.0,877743.0,694204.0,1029674.0,0.017543859779834747,64.0
2506281.0,4653300.0,4070105.0,5940454.0,460617.0,878176.0,702217.0,1043145.0,0.017543859779834747,64.0
2412074.0,4468242.0,3912500.0,5715559.0,443409.0,841489.0,673851.0,1000882.0,0.03703703731298447,64.0
2526779.0,4683622.0,4094428.0,5972849.0,465403.0,883608.0,704897.0,1046667.0,0.017543859779834747,64.0
2399680.0,4453220.0,3881038.0,5670200.0,457304.0,870241.0,690471.0,1028078.0,0.0,64.0
2520831.0,4680278.0,4073032.0,5950433.0,486541.0,923819.0,731690.0,1091036.0,0.0,64.0
2512224.0,4665166.0,4058712.0,5930545.0,483763.0,918874.0,728440.0,1085191.0,0.017543859779834747,64.0
2508994.0,4662258.0,4054559.0,5922924.0,481705.0,916251.0,725436.0,1079897.0,0.017543859779834747,64.0
2382332.0,4423319.0,3846530.0,5619864.0,457228.0,869087.0,686432.0,1022737.0,0.0,64.0
2503358.0,4652974.0,4046401.0,5910308.0,478760.0,912501.0,721247.0,1073519.0,0.0,64.0
2375668.0,4413721.0,3838700.0,5604455.0,454565.0,863643.0,682682.0,1015412.0,0.017543859779834747,66.0
2496963.0,4642001.0,4036250.0,5893016.0,476405.0,907660.0,717949.0,1067800.0,0.017543859779834747,67.0
2495309.0,4640257.0,4034080.0,5889746.0,475671.0,907943.0,717530.0,1067191.0,0.0,67.0
2491111.0,4633996.0,4025419.0,5875965.0,476283.0,905651.0,714191.0,1061909.0,0.017543859779834747,67.0
2488189.0,4628758.0,4022773.0,5871986.0,474034.0,904437.0,713477.0,1062111.0,0.0,67.0
2482954.0,4620673.0,4012942.0,5855670.0,472337.0,902180.0,710829.0,1057146.0,0.0,67.0
2480818.0,4616330.0,4006842.0,5846866.0,472654.0,901025.0,709244.0,1053777.0,0.017543859779834747,67.0
2477354.0,4612192.0,4002590.0,5839658.0,471101.0,899217.0,709566.0,1052281.0,0.03703703731298447,68.0
2473689.0,4605695.0,3996505.0,5828744.0,470442.0,897108.0,706526.0,1049740.0,0.017543859779834747,68.0
2473689.0,4605695.0,3996505.0,5828744.0,470442.0,897108.0,706526.0,1049740.0,0.017543859779834747,70.0
2472938.0,4603613.0,3994710.0,5823815.0,471026.0,897265.0,706650.0,1048960.0,0.017543859779834747,70.0
2470693.0,4600975.0,3990735.0,5815576.0,469364.0,897138.0,705760.0,1046274.0,0.017543859779834747,70.0
2347620.0,4373395.0,3793844.0,5528995.0,446863.0,853233.0,672138.0,996838.0,0.017543859779834747,71.0
2468841.0,4598338.0,3989267.0,5810821.0,469877.0,896478.0,706597.0,1046463.0,0.03703703731298447,71.0
2468690.0,4595874.0,3987205.0,5805845.0,470237.0,896538.0,705343.0,1045685.0,0.017543859779834747,72.0
2468011.0,4597204.0,3984620.0,5807397.0,470199.0,897319.0,705797.0,1046972.0,0.017543859779834747,72.0
2464930.0,4591713.0,3981236.0,5795606.0,470758.0,898197.0,707028.0,1047049.0,0.017543859779834747,72.0
2473727.0,4607361.0,3995279.0,5817996.0,475413.0,906883.0,713279.0,1058725.0,0.017543859779834747,73.0
2469348.0,4600136.0,3989606.0,5806642.0,473633.0,904313.0,712843.0,1055374.0,0.017543859779834747,73.0
2467704.0,4596477.0,3985068.0,5802869.0,472918.0,904772.0,712086.0,1056117.0,0.0,73.0
2470173.0,4599890.0,3988948.0,5810243.0,473585.0,904515.0,711782.0,1055750.0,0.017543859779834747,73.0
2471073.0,4600873.0,3989687.0,5810685.0,474043.0,903662.0,710953.0,1053849.0,0.017543859779834747,73.0
2473836.0,4606378.0,3996564.0,5822037.0,474940.0,904834.0,713277.0,1058551.0,0.017543859779834747,73.0
2472676.0,4603252.0,3991396.0,5816047.0,473692.0,903241.0,711231.0,1056053.0,0.017543859779834747,73.0
2473147.0,4602597.0,3992606.0,5816782.0,473423.0,902920.0,711939.0,1055778.0,0.017543859779834747,73.0
2471667.0,4599996.0,3989533.0,5812363.0,472536.0,902319.0,710590.0,1053406.0,0.017543859779834747,73.0
2345345.0,4366527.0,3786185.0,5514149.0,448464.0,855775.0,673723.0,998484.0,0.017543859779834747,73.0
2468161.0,4595775.0,3986382.0,5808475.0,471399.0,900915.0,708401.0,1051579.0,0.0,73.0
2466111.0,4592383.0,3981497.0,5800679.0,470646.0,899072.0,707039.0,1047621.0,0.017543859779834747,73.0
2467418.0,4594805.0,3984156.0,5803155.0,471936.0,897803.0,707677.0,1047774.0,0.0833333358168602,73.0
2463022.0,4590083.0,3979905.0,5796125.0,469944.0,896082.0,704843.0,1044594.0,0.017543859779834747,72.0
2463237.0,4586978.0,3976860.0,5789947.0,469830.0,894481.0,703787.0,1042169.0,0.0833333358168602,72.0
2463125.0,4588086.0,3978094.0,5794115.0,468038.0,894285.0,703550.0,1041556.0,0.017543859779834747,72.0
2459748.0,4581899.0,3971348.0,5782586.0,467151.0,891767.0,700918.0,1037951.0,0.017543859779834747,72.0
2459421.0,4582072.0,3970464.0,5779758.0,466491.0,892031.0,700611.0,1036865.0,0.017543859779834747,72.0
2459421.0,4582072.0,3970464.0,5779758.0,466491.0,892031.0,700611.0,1036865.0,0.017543859779834747,72.0
2455422.0,4577732.0,3966375.0,5772407.0,465595.0,890546.0,699522.0,1035339.0,0.017543859779834747,72.0
2452754.0,4570111.0,3959692.0,5762651.0,464204.0,887886.0,697043.0,1030523.0,0.03703703731298447,71.0
2448515.0,4563747.0,3952644.0,5748292.0,462835.0,884979.0,693864.0,1026942.0,0.017543859779834747,71.0
2448502.0,4565314.0,3955672.0,5752850.0,462141.0,884159.0,694716.0,1026535.0,0.03703703731298447,71.0
2445850.0,4559055.0,3948986.0,5745293.0,460772.0,882751.0,691828.0,1023524.0,0.017543859779834747,71.0
2447047.0,4563079.0,3953721.0,5750811.0,461759.0,883047.0,693026.0,1024273.0,0.03703703731298447,71.0
2444718.0,4560590.0,3951025.0,5746615.0,459260.0,882253.0,692021.0,1021496.0,0.017543859779834747,71.0
2447671.0,4563667.0,3954555.0,5752461.0,460509.0,883158.0,691702.0,1023985.0,0.0,70.0
2446385.0,4564413.0,3954313.0,5754951.0,460225.0,882120.0,691707.0,1023963.0,0.017543859779834747,70.0
2447846.0,4565312.0,3956392.0,5755620.0,460522.0,882006.0,691919.0,1022626.0,0.017543859779834747,70.0
2327498.0,4338800.0,3760844.0,5473321.0,438140.0,838559.0,659220.0,973928.0,0.03703703731298447,70.0
2447897.0,4563757.0,3954374.0,5754499.0,460036.0,880962.0,690994.0,1021434.0,0.017543859779834747,70.0
2447196.0,4565261.0,3956296.0,5757093.0,459898.0,880798.0,691134.0,1022888.0,0.017543859779834747,70.0
2444367.0,4557365.0,3949040.0,5745968.0,458802.0,878797.0,688892.0,1018566.0,0.017543859779834747,70.0
2444050.0,4556256.0,3948356.0,5744324.0,459080.0,878456.0,689340.0,1020021.0,0.017543859779834747,70.0
2439340.0,4549016.0,3941624.0,5734212.0,457484.0,876456.0,688044.0,1017678.0,0.017543859779834747,69.0
2437024.0,4547239.0,3937003.0,5724413.0,457510.0,874990.0,686337.0,1014133.0,0.03703703731298447,69.0
2436459.0,4545777.0,3937169.0,5725006.0,458045.0,877615.0,688174.0,1016037.0,0.03703703731298447,68.0
2313888.0,4314981.0,3736288.0,5433183.0,433382.0,831205.0,652625.0,963266.0,0.03703703731298447,68.0
2435296.0,4544449.0,3935055.0,5721772.0,457433.0,875457.0,687097.0,1015603.0,0.017543859779834747,68.0
2437514.0,4546719.0,3937700.0,5727947.0,456939.0,877631.0,688711.0,1017046.0,0.017543859779834747,68.0
2438635.0,4546892.0,3938390.0,5727838.0,458975.0,877378.0,687939.0,1017959.0,0.017543859779834747,68.0
2319197.0,4324363.0,3745379.0,5448956.0,436325.0,835619.0,655619.0,969726.0,0.017543859779834747,68.0
2443268.0,4555367.0,3948396.0,5743605.0,460677.0,881066.0,693306.0,1023734.0,0.03703703731298447,68.0
2443268.0,4555367.0,3948396.0,5743605.0,460677.0,881066.0,693306.0,1023734.0,0.03703703731298447,68.0
2444546.0,4559464.0,3951450.0,5749465.0,460591.0,882210.0,692959.0,1023996.0,0.03703703731298447,68.0
2447525.0,4564113.0,3956224.0,5758278.0,461939.0,883943.0,693203.0,1027228.0,0.017543859779834747,68.0
2451544.0,4570508.0,3963524.0,5770329.0,462117.0,884812.0,695622.0,1031508.0,0.0,69.0
2451986.0,4570210.0,3963686.0,5770292.0,463194.0,884727.0,696091.0,1029691.0,0.03703703731298447,69.0
2455297.0,4575135.0,3968508.0,5780528.0,463163.0,887505.0,697503.0,1033779.0,0.017543859779834747,69.0
2330948.0,4344893.0,3767420.0,5486526.0,441466.0,842880.0,662322.0,980778.0,0.03703703731298447,69.0
2454615.0,4573754.0,3966546.0,5779086.0,464033.0,886095.0,696426.0,1032939.0,0.017543859779834747,69.0
2451294.0,4568999.0,3961605.0,5769019.0,463318.0,885589.0,696617.0,1031646.0,0.017543859779834747,69.0
2448823.0,4564998.0,3956500.0,5759429.0,462302.0,884160.0,694300.0,1028624.0,0.017543859779834747,69.0
2322940.0,4328749.0,3751268.0,5458547.0,437260.0,838202.0,658801.0,974939.0,0.017543859779834747,69.0
2441388.0,4549805.0,3941715.0,5732308.0,460619.0,880651.0,692375.0,1022202.0,0.03703703731298447,69.0
2439248.0,4548217.0,3940241.0,5730568.0,459031.0,879087.0,690711.0,1023211.0,0.0,69.0
2436259.0,4542130.0,3932528.0,5716922.0,459257.0,877898.0,688934.0,1018048.0,0.03703703731298447,69.0
2434576.0,4543077.0,3933405.0,5718144.0,458160.0,878479.0,689976.0,1020586.0,0.017543859779834747,69.0
2432963.0,4538005.0,3930405.0,5711184.0,459029.0,878529.0,689040.0,1018916.0,0.017543859779834747,69.0
2433997.0,4537079.0,3928292.0,5709945.0,458850.0,877397.0,688257.0,1018083.0,0.017543859779834747,69.0
2435116.0,4540988.0,3932092.0,5716193.0,459171.0,879523.0,689701.0,1020661.0,0.017543859779834747,69.0
2434795.0,4539421.0,3930854.0,5713998.0,459479.0,879247.0,689566.0,1020409.0,0.017543859779834747,69.0
2437090.0,4546159.0,3939221.0,5728565.0,459240.0,881215.0,692831.0,1025981.0,0.0,69.0
2437166.0,4545070.0,3938271.0,5726285.0,460079.0,882422.0,693118.0,1024038.0,0.017543859779834747,69.0
2440760.0,4549776.0,3943120.0,5736970.0,462628.0,882836.0,692534.0,1027908.0,0.0,68.0
2441308.0,4549401.0,3943462.0,5735717.0,461469.0,883136.0,694296.0,1027428.0,0.017543859779834747,68.0
2444131.0,4555504.0,3949682.0,5747444.0,463646.0,885770.0,696772.0,1031126.0,0.017543859779834747,68.0
2323362.0,4329955.0,3753769.0,5464419.0,440576.0,841978.0,662093.0,980835.0,0.017543859779834747,68.0
2448644.0,4562280.0,3956355.0,5760545.0,464712.0,888185.0,698139.0,1035007.0,0.017543859779834747,68.0
2448644.0,4562280.0,3956355.0,5760545.0,464712.0,888185.0,698139.0,1035007.0,0.017543859779834747,67.0
2451572.0,4568471.0,3963120.0,5772688.0,464669.0,889034.0,700504.0,1039396.0,0.0,67.0
2452914.0,4571115.0,3964235.0,5777887.0,467027.0,891435.0,701423.0,1041660.0,0.017543859779834747,67.0
2452089.0,4568875.0,3961638.0,5770665.0,466807.0,890518.0,700508.0,1039051.0,0.017543859779834747,67.0
2451738.0,4570183.0,3964035.0,5775574.0,465421.0,890836.0,702924.0,1040630.0,0.017543859779834747,67.0
2448423.0,4563040.0,3955637.0,5759705.0,465772.0,889646.0,699682.0,1037157.0,0.017543859779834747,67.0
2446555.0,4559938.0,3952582.0,5753967.0,464453.0,888176.0,698725.0,1035622.0,0.017543859779834747,67.0
2437678.0,4544058.0,3935670.0,5724980.0,462316.0,884495.0,694784.0,1028948.0,0.017543859779834747,66.0
2316858.0,4317857.0,3740533.0,5440616.0,439933.0,840105.0,660831.0,977498.0,0.017543859779834747,66.0
2439007.0,4545221.0,3936178.0,5723951.0,464126.0,884794.0,694012.0,1028691.0,0.017543859779834747,66.0
2441529.0,4549453.0,3941642.0,5734541.0,463794.0,885584.0,696640.0,1031425.0,0.017543859779834747,66.0
2441653.0,4548001.0,3940674.0,5731036.0,463185.0,886086.0,695750.0,1029446.0,0.017543859779834747,66.0
2442884.0,4550094.0,3942551.0,5734041.0,463205.0,885321.0,696610.0,1031237.0,0.017543859779834747,67.0
2444590.0,4554147.0,3946653.0,5742328.0,464559.0,887352.0,698206.0,1033854.0,0.017543859779834747,68.0
2444649.0,4555295.0,3948616.0,5743348.0,464468.0,886692.0,697608.0,1033231.0,0.017543859779834747,68.0
2447249.0,4559792.0,3953965.0,5753503.0,464817.0,889254.0,699331.0,1035221.0,0.017543859779834747,68.0
2447898.0,4558885.0,3953231.0,5752475.0,465016.0,887634.0,699312.0,1035102.0,0.017543859779834747,68.0
2450981.0,4564781.0,3957986.0,5761855.0,466034.0,890620.0,700183.0,1037878.0,0.017543859779834747,68.0
2449032.0,4561740.0,3955659.0,5756258.0,465378.0,889267.0,699764.0,1036383.0,0.017543859779834747,68.0
2450575.0,4566625.0,3960753.0,5762719.0,465050.0,890724.0,700866.0,1039037.0,0.0,69.0
2449265.0,4560245.0,3954728.0,5755191.0,466205.0,888324.0,699624.0,1036037.0,0.017543859779834747,69.0
2450057.0,4563400.0,3957145.0,5760225.0,465617.0,889376.0,699375.0,1036931.0,0.017543859779834747,69.0
2447214.0,4558666.0,3952412.0,5749814.0,464961.0,888453.0,698670.0,1034770.0,0.017543859779834747,69.0
2448429.0,4560736.0,3954794.0,5756410.0,464998.0,888075.0,698772.0,1034307.0,0.017543859779834747,69.0
2444362.0,4553355.0,3947382.0,5742843.0,464250.0,887254.0,696326.0,1031206.0,0.017543859779834747,69.0
2444364.0,4555974.0,3950036.0,5747916.0,463618.0,885599.0,696793.0,1032377.0,0.017543859779834747,69.0
2441128.0,4549148.0,3942921.0,5735081.0,462472.0,883804.0,694015.0,1028585.0,0.0,69.0
2441645.0,4552303.0,3944970.0,5742067.0,463748.0,884780.0,695466.0,1030366.0,0.017543859779834747,69.0
2439082.0,4545130.0,3938440.0,5726225.0,461418.0,881048.0,691303.0,1024894.0,0.0,69.0
2440022.0,4546154.0,3940247.0,5731581.0,461439.0,881864.0,692850.0,1026125.0,0.017543859779834747,69.0
2435480.0,4539419.0,3932743.0,5715304.0,460310.0,880105.0,690616.0,1020562.0,0.017543859779834747,69.0
2436145.0,4541412.0,3934912.0,5720052.0,459709.0,880907.0,691231.0,1022620.0,0.0,68.0
2432148.0,4534472.0,3926364.0,5707054.0,460059.0,877906.0,689720.0,1019817.0,0.03703703731298447,68.0
2433324.0,4534974.0,3928055.0,5708875.0,459604.0,878135.0,689559.0,1018625.0,0.03703703731298447,68.0
2430981.0,4530697.0,3923470.0,5703995.0,459193.0,876800.0,689177.0,1018040.0,0.03703703731298447,68.0
2430597.0,4529487.0,3922865.0,5699248.0,458206.0,876960.0,687690.0,1015637.0,0.017543859779834747,68.0
2432050.0,4533535.0,3925909.0,5705728.0,460079.0,879345.0,689417.0,1019208.0,0.017543859779834747,67.0
2429215.0,4529561.0,3922393.0,5699659.0,459521.0,878351.0,690418.0,1017521.0,0.05882352963089943,67.0
2431811.0,4531423.0,3924384.0,5703167.0,459689.0,877906.0,689532.0,1019074.0,0.017543859779834747,67.0
2432149.0,4534914.0,3927467.0,5708254.0,461329.0,880330.0,690448.0,1020176.0,0.03703703731298447,66.0
2432843.0,4535932.0,3927230.0,5708560.0,460174.0,880287.0,690606.0,1021008.0,0.017543859779834747,65.0
2437997.0,4541484.0,3936028.0,5724575.0,462194.0,882604.0,693823.0,1026318.0,0.017543859779834747,65.0
2437939.0,4544574.0,3937977.0,5725708.0,462846.0,883163.0,694800.0,1026666.0,0.03703703731298447,65.0
2441570.0,4549409.0,3943647.0,5736160.0,463609.0,885425.0,695990.0,1029110.0,0.03703703731298447,65.0
2444663.0,4554263.0,3948220.0,5745032.0,464287.0,887733.0,697618.0,1033173.0,0.017543859779834747,65.0
2445600.0,4556208.0,3949106.0,5746755.0,465033.0,887651.0,697760.0,1032782.0,0.017543859779834747,64.0
2448579.0,4559956.0,3954164.0,5755196.0,465429.0,889432.0,699001.0,1036160.0,0.0,64.0
2448579.0,4559956.0,3954164.0,5755196.0,465429.0,889432.0,699001.0,1036160.0,0.0,64.0
2446894.0,4558545.0,3951610.0,5749703.0,465808.0,889566.0,698979.0,1034797.0,0.017543859779834747,64.0
2444048.0,4553406.0,3947684.0,5742527.0,465130.0,886644.0,697710.0,1033400.0,0.017543859779834747,64.0
2447358.0,4558136.0,3951502.0,5748762.0,465708.0,889707.0,699222.0,1035579.0,0.017543859779834747,64.0
2444123.0,4551727.0,3944375.0,5736020.0,465459.0,886510.0,696930.0,1031869.0,0.017543859779834747,64.0
2443835.0,4553387.0,3947192.0,5740417.0,464695.0,886861.0,697567.0,1032093.0,0.017543859779834747,64.0
2440732.0,4547918.0,3940337.0,5728913.0,463867.0,885772.0,695723.0,1028790.0,0.017543859779834747,64.0
2441077.0,4546404.0,3940566.0,5728398.0,463157.0,884910.0,695391.0,1029363.0,0.017543859779834747,64.0
2437423.0,4541277.0,3933284.0,5717010.0,461912.0,883583.0,693623.0,1024263.0,0.017543859779834747,65.0
2433963.0,4535630.0,3928854.0,5708202.0,461362.0,881553.0,690883.0,1021624.0,0.017543859779834747,65.0
2432866.0,4533627.0,3926055.0,5705146.0,461588.0,880183.0,690148.0,1020600.0,0.017543859779834747,67.0
2430454.0,4529376.0,3920729.0,5694768.0,459914.0,878277.0,688829.0,1016845.0,0.03703703731298447,67.0
2430253.0,4530355.0,3923011.0,5697577.0,458481.0,878010.0,689307.0,1016135.0,0.03703703731298447,67.0
2306522.0,4299944.0,3722551.0,5405896.0,435658.0,832403.0,652255.0,962643.0,0.03703703731298447,67.0
2428808.0,4529163.0,3921805.0,5697779.0,458311.0,876160.0,687999.0,1015720.0,0.03703703731298447,67.0
2426269.0,4525539.0,3918407.0,5690085.0,457821.0,874008.0,686849.0,1012638.0,0.0833333358168602,67.0
2429555.0,4527877.0,3921866.0,5698007.0,457600.0,875578.0,687934.0,1014446.0,0.03703703731298447,67.0
2426914.0,4525643.0,3918070.0,5692586.0,457460.0,875906.0,687042.0,1014019.0,0.03703703731298447,67.0
2427284.0,4523347.0,3917717.0,5691003.0,457025.0,875161.0,686359.0,1012399.0,0.03703703731298447,66.0
2426533.0,4525162.0,3917807.0,5692816.0,456694.0,875566.0,686749.0,1014123.0,0.017543859779834747,66.0
2423643.0,4521378.0,3913676.0,5686198.0,456428.0,874090.0,685923.0,1012387.0,0.03703703731298447,66.0
2427153.0,4525351.0,3919145.0,5694558.0,456870.0,876089.0,688117.0,1016071.0,0.017543859779834747,66.0
2424054.0,4521336.0,3914551.0,5686031.0,456613.0,874893.0,686079.0,1012430.0,0.017543859779834747,66.0
2426215.0,4524203.0,3917335.0,5693007.0,457762.0,874764.0,686931.0,1015519.0,0.017543859779834747,66.0
2425266.0,4524398.0,3917662.0,5692083.0,457432.0,876461.0,688493.0,1016867.0,0.017543859779834747,65.0
2302486.0,4296452.0,3719601.0,5403605.0,435791.0,831827.0,653762.0,965019.0,0.0833333358168602,65.0
2302486.0,4296452.0,3719601.0,5403605.0,435791.0,831827.0,653762.0,965019.0,0.0833333358168602,65.0
2427079.0,4524330.0,3917396.0,5691823.0,458776.0,878100.0,689317.0,1016385.0,0.03703703731298447,65.0
2427174.0,4524527.0,3918445.0,5693549.0,460080.0,878367.0,689320.0,1019323.0,0.017543859779834747,66.0
2426023.0,4522911.0,3916882.0,5690001.0,459374.0,879442.0,690204.0,1018542.0,0.017543859779834747,66.0
2425159.0,4520878.0,3913698.0,5686769.0,458958.0,877643.0,688732.0,1016649.0,0.03703703731298447,66.0
2427416.0,4524435.0,3919015.0,5694062.0,459356.0,878748.0,690644.0,1020007.0,0.017543859779834747,66.0
2426256.0,4522693.0,3917076.0,5690167.0,460130.0,879284.0,690596.0,1020125.0,0.017543859779834747,66.0
2428500.0,4529661.0,3923644.0,5702960.0,461066.0,880839.0,692360.0,1023715.0,0.017543859779834747,66.0
2429202.0,4528579.0,3922535.0,5699549.0,461901.0,881456.0,690887.0,1021738.0,0.017543859779834747,67.0
2432390.0,4531635.0,3926560.0,5705091.0,461344.0,882571.0,694192.0,1025371.0,0.017543859779834747,67.0
2418779.0,4506154.0,3901512.0,5657908.0,458162.0,875216.0,686565.0,1011769.0,0.03703703731298447,66.0
2419744.0,4506471.0,3900149.0,5656370.0,458225.0,873958.0,686135.0,1011203.0,0.03703703731298447,65.0
2421415.0,4510288.0,3904217.0,5664634.0,458942.0,875614.0,687901.0,1014402.0,0.03703703731298447,65.0
2420006.0,4507614.0,3900239.0,5657455.0,459554.0,875508.0,687377.0,1011920.0,0.0833333358168602,65.0
2421809.0,4512017.0,3905454.0,5664825.0,460017.0,876292.0,687735.0,1014735.0,0.03703703731298447,65.0
2421345.0,4509372.0,3902691.0,5660297.0,459021.0,875992.0,687829.0,1013912.0,0.03703703731298447,65.0
2419033.0,4504463.0,3898400.0,5651130.0,458673.0,875025.0,687796.0,1010849.0,0.0833333358168602,66.0
2420461.0,4508422.0,3900734.0,5657069.0,459851.0,877464.0,687277.0,1013743.0,0.017543859779834747,66.0
2416804.0,4501824.0,3892929.0,5644127.0,458036.0,875661.0,685907.0,1010365.0,0.017543859779834747,66.0
2416804.0,4501824.0,3892929.0,5644127.0,458036.0,875661.0,685907.0,1010365.0,0.017543859779834747,66.0
2415433.0,4498105.0,3891346.0,5641218.0,457157.0,874471.0,685518.0,1009748.0,0.017543859779834747,66.0
2414376.0,4497958.0,3891232.0,5641062.0,457904.0,874224.0,685771.0,1011134.0,0.017543859779834747,66.0
2417449.0,4502272.0,3895994.0,5648094.0,459347.0,876508.0,688212.0,1014796.0,0.017543859779834747,67.0
2417657.0,4500768.0,3891885.0,5645096.0,460152.0,877360.0,687274.0,1014599.0,0.017543859779834747,68.0
2416191.0,4498858.0,3890232.0,5639981.0,458453.0,875625.0,687189.0,1013770.0,0.017543859779834747,68.0
2419682.0,4504208.0,3896906.0,5650896.0,459609.0,878216.0,689048.0,1016430.0,0.017543859779834747,69.0
2417624.0,4501789.0,3894150.0,5644748.0,459441.0,877011.0,688781.0,1015424.0,0.017543859779834747,70.0
2417624.0,4501789.0,3894150.0,5644748.0,459441.0,877011.0,688781.0,1015424.0,0.017543859779834747,70.0
2298552.0,4276682.0,3700341.0,5366769.0,437521.0,833518.0,655371.0,964521.0,0.0833333358168602,70.0
2420228.0,4505145.0,3897341.0,5653170.0,459778.0,877136.0,688529.0,1016017.0,0.017543859779834747,72.0
2420876.0,4505105.0,3897744.0,5651276.0,460473.0,877901.0,689696.0,1014968.0,0.03703703731298447,72.0
2423180.0,4509165.0,3901987.0,5659574.0,461352.0,878628.0,689756.0,1018568.0,0.017543859779834747,72.0
2422200.0,4507171.0,3898515.0,5652916.0,460191.0,878823.0,690021.0,1016691.0,0.017543859779834747,72.0
2425156.0,4513746.0,3905777.0,5665436.0,460616.0,879130.0,691659.0,1019382.0,0.03703703731298447,72.0
2422907.0,4509025.0,3901647.0,5656694.0,461012.0,877610.0,689954.0,1016752.0,0.0833333358168602,73.0
2425271.0,4513449.0,3906403.0,5666222.0,460674.0,878927.0,689997.0,1018671.0,0.017543859779834747,73.0
2423118.0,4508408.0,3900998.0,5657146.0,459922.0,877571.0,689432.0,1015192.0,0.03703703731298447,74.0
2420633.0,4504925.0,3898879.0,5651073.0,458523.0,875519.0,687135.0,1012471.0,0.017543859779834747,74.0
2418864.0,4503655.0,3895955.0,5648584.0,459237.0,876765.0,687267.0,1012473.0,0.03703703731298447,74.0
2418217.0,4499863.0,3891894.0,5640105.0,458802.0,873968.0,686565.0,1008369.0,0.0833333358168602,74.0
2419683.0,4502652.0,3895498.0,5647054.0,458725.0,874054.0,686187.0,1010148.0,0.03703703731298447,74.0
2416483.0,4497563.0,3889370.0,5636718.0,457672.0,873246.0,684217.0,1007524.0,0.03703703731298447,74.0
2417561.0,4501858.0,3893923.0,5644971.0,457491.0,873668.0,684260.0,1008713.0,0.017543859779834747,74.0
2416813.0,4499017.0,3890932.0,5639703.0,457977.0,872495.0,683745.0,1006941.0,0.03703703731298447,74.0
2415857.0,4496741.0,3889236.0,5635850.0,457327.0,870674.0,681881.0,1004635.0,0.03703703731298447,74.0
2419695.0,4505099.0,3896689.0,5649489.0,457689.0,873454.0,685050.0,1009832.0,0.017543859779834747,73.0
2417215.0,4499984.0,3892176.0,5640827.0,457478.0,871544.0,682286.0,1005225.0,0.03703703731298447,73.0
2295574.0,4272911.0,3695538.0,5354461.0,433823.0,827182.0,648367.0,952320.0,0.0833333358168602,73.0
2416795.0,4499663.0,3891172.0,5641375.0,457001.0,870153.0,682960.0,1006289.0,0.0833333358168602,73.0
2415502.0,4497064.0,3888079.0,5634616.0,456065.0,870586.0,682182.0,1002672.0,0.03703703731298447,72.0
2416326.0,4497137.0,3889977.0,5637820.0,456456.0,870895.0,681704.0,1003942.0,0.03703703731298447,72.0
2416743.0,4499553.0,3893110.0,5642528.0,456640.0,871289.0,683250.0,1004779.0,0.03703703731298447,71.0
2416042.0,4496996.0,3889654.0,5637088.0,456179.0,870039.0,681857.0,1004470.0,0.03703703731298447,71.0
2415954.0,4497264.0,3891294.0,5638375.0,455863.0,870812.0,682457.0,1004335.0,0.03703703731298447,71.0
2415368.0,4497724.0,3890899.0,5638879.0,455490.0,870900.0,683502.0,1004794.0,0.03703703731298447,71.0
2413944.0,4494238.0,3887866.0,5633752.0,455341.0,869637.0,682575.0,1002880.0,0.03703703731298447,71.0
2417268.0,4501937.0,3895674.0,5647041.0,457441.0,872839.0,685122.0,1009264.0,0.03703703731298447,72.0
2418085.0,4502256.0,3894886.0,5646428.0,458373.0,873766.0,685444.0,1008621.0,0.0833333358168602,72.0
2424053.0,4512761.0,3907146.0,5667657.0,460601.0,877880.0,689240.0,1016845.0,0.017543859779834747,72.0
2427345.0,4516466.0,3909558.0,5674682.0,460956.0,879335.0,690522.0,1018257.0,0.03703703731298447,72.0
2429506.0,4522341.0,3917955.0,5686421.0,462465.0,881242.0,693406.0,1021707.0,0.0833333358168602,72.0
2434320.0,4530920.0,3925196.0,5700376.0,464451.0,884352.0,696355.0,1026782.0,0.0833333358168602,72.0
2436360.0,4530465.0,3924900.0,5699066.0,464089.0,884639.0,696053.0,1027516.0,0.017543859779834747,73.0
2436313.0,4532079.0,3927972.0,5702464.0,463996.0,885433.0,697079.0,1027847.0,0.03703703731298447,73.0
2431461.0,4522144.0,3915958.0,5683676.0,463369.0,882443.0,693332.0,1023798.0,0.017543859779834747,73.0
2425129.0,4510973.0,3904081.0,5661987.0,462231.0,878661.0,690758.0,1018201.0,0.0833333358168602,73.0
2421639.0,4505439.0,3898324.0,5652751.0,460910.0,879127.0,690031.0,1016919.0,0.017543859779834747,74.0
2415572.0,4495394.0,3887002.0,5631745.0,460632.0,876363.0,687462.0,1011423.0,0.0833333358168602,74.0
2414422.0,4493998.0,3885956.0,5629143.0,459976.0,875698.0,686610.0,1011426.0,0.03703703731298447,73.0
2408453.0,4482557.0,3875594.0,5610534.0,458144.0,874601.0,684517.0,1007673.0,0.017543859779834747,73.0
2408453.0,4482557.0,3875594.0,5610534.0,458144.0,874601.0,684517.0,1007673.0,0.017543859779834747,73.0
2408534.0,4481740.0,3873927.0,5608094.0,458996.0,872732.0,685120.0,1007999.0,0.0833333358168602,73.0
2413585.0,4492676.0,3884197.0,5626238.0,459713.0,875965.0,687058.0,1011487.0,0.03703703731298447,73.0
2297575.0,4275508.0,3698126.0,5359953.0,438602.0,835037.0,654899.0,965273.0,0.03703703731298447,72.0
2418711.0,4501887.0,3894295.0,5643088.0,461285.0,879122.0,689745.0,1014493.0,0.0833333358168602,72.0
2422999.0,4508200.0,3901596.0,5654415.0,462123.0,879465.0,690504.0,1018101.0,0.017543859779834747,72.0
2422590.0,4508019.0,3901490.0,5656224.0,461456.0,879999.0,691836.0,1019054.0,0.03703703731298447,71.0
2423100.0,4508785.0,3901971.0,5655137.0,461669.0,879632.0,689788.0,1016260.0,0.03703703731298447,71.0
2425456.0,4511950.0,3906469.0,5662770.0,461982.0,879361.0,691434.0,1018331.0,0.03703703731298447,71.0
2423399.0,4508209.0,3900714.0,5653712.0,461228.0,878106.0,689511.0,1014351.0,0.0833333358168602,71.0
2422432.0,4507409.0,3899366.0,5650486.0,459509.0,877627.0,687488.0,1012014.0,0.017543859779834747,71.0
2420564.0,4503850.0,3896057.0,5646075.0,459076.0,875584.0,687069.0,1011061.0,0.03703703731298447,71.0
2417012.0,4498484.0,3890278.0,5635709.0,457777.0,873805.0,684532.0,1006867.0,0.03703703731298447,71.0
2416386.0,4497206.0,3890692.0,5636960.0,457724.0,874367.0,686100.0,1007896.0,0.03703703731298447,70.0
2410247.0,4488198.0,3882463.0,5621275.0,456134.0,869481.0,682641.0,1003277.0,0.0833333358168602,70.0
2411617.0,4487443.0,3881837.0,5620378.0,456898.0,870212.0,681787.0,1003195.0,0.03703703731298447,70.0
2411571.0,4487711.0,3879927.0,5618301.0,457074.0,870574.0,681724.0,1001670.0,0.0833333358168602,70.0
2412488.0,4490045.0,3884005.0,5625341.0,456753.0,870910.0,682660.0,1003988.0,0.03703703731298447,70.0
2399767.0,4466434.0,3859827.0,5581889.0,454060.0,865769.0,678316.0,996607.0,0.03703703731298447,66.0
2399767.0,4466434.0,3859827.0,5581889.0,454060.0,865769.0,678316.0,996607.0,0.03703703731298447,66.0
2401039.0,4468027.0,3862241.0,5585441.0,455288.0,868261.0,679689.0,998242.0,0.03703703731298447,66.0
2404159.0,4474276.0,3867404.0,5596250.0,455418.0,869170.0,680846.0,1000948.0,0.03703703731298447,66.0
2408336.0,4480843.0,3873241.0,5605470.0,456529.0,871221.0,682604.0,1003045.0,0.03703703731298447,67.0
2412524.0,4488253.0,3883140.0,5623715.0,458130.0,873027.0,685266.0,1008007.0,0.03703703731298447,67.0
2413291.0,4489386.0,3883623.0,5623044.0,457780.0,873386.0,685285.0,1006770.0,0.03703703731298447,67.0
2416357.0,4493965.0,3888828.0,5632457.0,459025.0,874188.0,685731.0,1009427.0,0.03703703731298447,68.0
2415453.0,4491552.0,3886350.0,5628677.0,458852.0,871924.0,686307.0,1008749.0,0.0833333358168602,69.0
2411172.0,4484870.0,3879818.0,5613798.0,457780.0,871652.0,683361.0,1003983.0,0.03703703731298447,69.0
2411186.0,4486606.0,3880215.0,5617322.0,458170.0,871170.0,684133.0,1005930.0,0.0833333358168602,69.0
2407539.0,4479432.0,3871718.0,5601534.0,456669.0,869718.0,681566.0,1000163.0,0.0833333358168602,69.0
2404006.0,4471925.0,3865722.0,5589927.0,456070.0,867229.0,679344.0,997726.0,0.0833333358168602,70.0
2403487.0,4470670.0,3865517.0,5589910.0,455800.0,869144.0,681732.0,999208.0,0.05882352963089943,70.0
2399479.0,4464638.0,3857010.0,5575830.0,454163.0,866057.0,678844.0,995078.0,0.05882352963089943,70.0
2402762.0,4471662.0,3863707.0,5588224.0,457136.0,868206.0,680161.0,999225.0,0.0833333358168602,70.0
2403296.0,4470451.0,3863827.0,5587285.0,456217.0,868017.0,680575.0,999242.0,0.0833333358168602,70.0
2287215.0,4253894.0,3678100.0,5320547.0,434179.0,827143.0,648686.0,953490.0,0.03703703731298447,70.0
2409079.0,4480851.0,3873591.0,5605976.0,456569.0,870148.0,682952.0,1002451.0,0.05882352963089943,70.0
2413407.0,4487012.0,3879610.0,5615391.0,459033.0,873138.0,684777.0,1006975.0,0.0833333358168602,71.0
2415405.0,4490813.0,3883929.0,5622672.0,459621.0,874479.0,685745.0,1009575.0,0.03703703731298447,71.0
2292912.0,4264053.0,3687728.0,5336225.0,436288.0,828916.0,650820.0,956105.0,0.0833333358168602,71.0
2416780.0,4493874.0,3888729.0,5630390.0,459473.0,874497.0,685330.0,1009182.0,0.017543859779834747,71.0
2416238.0,4494625.0,3888715.0,5631164.0,458062.0,873878.0,685839.0,1008435.0,0.03703703731298447,71.0
2420566.0,4499663.0,3893950.0,5641236.0,459005.0,874666.0,687522.0,1011264.0,0.03703703731298447,70.0
2420125.0,4499162.0,3892410.0,5638331.0,458579.0,874841.0,687067.0,1010316.0,0.03703703731298447,70.0
2418547.0,4496986.0,3891018.0,5634636.0,460125.0,874009.0,684881.0,1008819.0,0.0833333358168602,70.0
2418547.0,4496986.0,3891018.0,5634636.0,460125.0,874009.0,684881.0,1008819.0,0.0833333358168602,70.0
2419887.0,4497250.0,3892571.0,5638454.0,460944.0,873904.0,686379.0,1010647.0,0.0833333358168602,70.0
2416943.0,4493890.0,3887626.0,5632180.0,458829.0,875107.0,686774.0,1008712.0,0.03703703731298447,70.0
2412414.0,4487643.0,3882054.0,5619251.0,458351.0,872731.0,684421.0,1005753.0,0.0833333358168602,70.0
2415867.0,4491950.0,3886170.0,5629229.0,459894.0,874054.0,686181.0,1009367.0,0.0833333358168602,70.0
2411431.0,4483906.0,3879018.0,5616549.0,458484.0,871131.0,683180.0,1005368.0,0.0833333358168602,69.0
2413861.0,4488991.0,3883908.0,5625950.0,457921.0,872068.0,684383.0,1006489.0,0.03703703731298447,69.0
2419238.0,4498076.0,3893558.0,5639706.0,459844.0,875635.0,689684.0,1012855.0,0.0833333358168602,68.0
2416464.0,4494024.0,3888570.0,5629937.0,458314.0,873474.0,685444.0,1007965.0,0.03703703731298447,68.0
2418879.0,4497552.0,3891615.0,5637737.0,459739.0,874682.0,685786.0,1010420.0,0.03703703731298447,68.0
2295871.0,4268899.0,3692204.0,5346249.0,435335.0,828700.0,650096.0,955001.0,0.0833333358168602,68.0
2416728.0,4493126.0,3887292.0,5626915.0,458141.0,871274.0,684104.0,1004302.0,0.0833333358168602,67.0
2415496.0,4489206.0,3883399.0,5621163.0,458019.0,870650.0,682722.0,1002876.0,0.0833333358168602,67.0
2411227.0,4483322.0,3876574.0,5608350.0,456705.0,867206.0,681071.0,998886.0,0.1111111119389534,67.0
2412243.0,4486271.0,3880025.0,5613574.0,455511.0,869037.0,681351.0,998579.0,0.05882352963089943,67.0
2408924.0,4480040.0,3873236.0,5601642.0,455133.0,866366.0,677036.0,994828.0,0.03703703731298447,67.0
2288796.0,4255225.0,3678208.0,5319908.0,432986.0,823791.0,643787.0,944054.0,0.0833333358168602,67.0
2407139.0,4478089.0,3872238.0,5601172.0,454676.0,866041.0,677770.0,994901.0,0.0833333358168602,67.0
2405980.0,4474062.0,3865890.0,5589447.0,454301.0,864536.0,675759.0,992179.0,0.0833333358168602,68.0
2406737.0,4477054.0,3871184.0,5597984.0,454185.0,865542.0,677558.0,995209.0,0.03703703731298447,68.0
2403696.0,4471783.0,3862984.0,5586334.0,453850.0,864082.0,675647.0,991294.0,0.0833333358168602,68.0
2404904.0,4473204.0,3867794.0,5591688.0,454404.0,864524.0,677067.0,992976.0,0.0833333358168602,68.0
2402957.0,4470035.0,3861954.0,5581814.0,454561.0,863351.0,675861.0,987969.0,0.1111111119389534,69.0
2404218.0,4469576.0,3861645.0,5582579.0,453666.0,861564.0,674545.0,987941.0,0.1111111119389534,69.0
2401465.0,4467389.0,3860176.0,5580395.0,451550.0,861894.0,674732.0,986727.0,0.0833333358168602,69.0
2401545.0,4465121.0,3857484.0,5574916.0,452684.0,860394.0,672456.0,983933.0,0.1111111119389534,70.0
2402837.0,4470140.0,3862007.0,5583554.0,452201.0,861738.0,674273.0,985999.0,0.1111111119389534,70.0
2401221.0,4466829.0,3860174.0,5580090.0,452194.0,859461.0,671859.0,983796.0,0.1111111119389534,70.0
2403209.0,4470918.0,3862979.0,5583146.0,452079.0,860367.0,672540.0,984849.0,0.0833333358168602,70.0
2402725.0,4469095.0,3862603.0,5582170.0,452747.0,860255.0,672411.0,984291.0,0.1111111119389534,70.0
2280416.0,4241219.0,3664677.0,5295565.0,428126.0,815449.0,637597.0,932166.0,0.0833333358168602,70.0
2402519.0,4468918.0,3861449.0,5581741.0,451547.0,859559.0,672267.0,983814.0,0.0833333358168602,70.0
2399636.0,4463351.0,3855415.0,5569678.0,449836.0,857199.0,669277.0,979133.0,0.0833333358168602,70.0
2397093.0,4460675.0,3852718.0,5564017.0,449763.0,856648.0,668019.0,976082.0,0.1111111119389534,70.0
2398140.0,4459911.0,3852497.0,5565538.0,449926.0,855732.0,668761.0,977513.0,0.1111111119389534,70.0
2394669.0,4455954.0,3848629.0,5556287.0,449240.0,856915.0,668771.0,976086.0,0.0833333358168602,70.0
2398679.0,4461557.0,3853570.0,5568363.0,450186.0,857646.0,669507.0,979865.0,0.0833333358168602,70.0
2397682.0,4459451.0,3851390.0,5562827.0,451322.0,856692.0,669380.0,976718.0,0.1111111119389534,70.0
2398014.0,4461344.0,3854239.0,5563898.0,450330.0,859141.0,670730.0,978411.0,0.1111111119389534,70.0
2397938.0,4462714.0,3854210.0,5567783.0,451131.0,858602.0,670915.0,981789.0,0.0833333358168602,70.0
2398977.0,4459509.0,3851019.0,5560087.0,450475.0,858198.0,669246.0,977238.0,0.0833333358168602,70.0
2400523.0,4464371.0,3856545.0,5570923.0,451692.0,859874.0,671964.0,981083.0,0.1111111119389534,70.0
2398552.0,4459559.0,3852483.0,5561090.0,451664.0,857552.0,670949.0,978401.0,0.1111111119389534,70.0
2399881.0,4463576.0,3856038.0,5568991.0,452104.0,859249.0,671257.0,979956.0,0.1111111119389534,70.0
2400940.0,4463399.0,3854302.0,5566661.0,451831.0,859210.0,669782.0,979446.0,0.1111111119389534,70.0
2400997.0,4464600.0,3857022.0,5567848.0,451062.0,860009.0,671364.0,980515.0,0.0833333358168602,70.0
2402937.0,4467512.0,3859116.0,5574233.0,452387.0,860556.0,672467.0,982156.0,0.1111111119389534,70.0
2402359.0,4466556.0,3858723.0,5572333.0,453689.0,861207.0,673071.0,983031.0,0.1111111119389534,71.0
2405585.0,4472430.0,3865195.0,5582006.0,454587.0,863314.0,675091.0,985309.0,0.1111111119389534,71.0
2403769.0,4469269.0,3861059.0,5575799.0,452476.0,862377.0,672660.0,983683.0,0.0833333358168602,71.0
2404231.0,4465544.0,3857874.0,5569618.0,453.0,862377.0,672660.0,983683.0,0.1111111119389534,71.0
2398022.0,4451352.0,3839771.0,5530078.0,453728.0,859828.0,671062.0,973623.0,0.1111111119389534,66.0
2396735.0,4449202.0,3836052.0,5522603.0,453112.0,858786.0,669217.0,970599.0,0.1111111119389534,66.0
2399971.0,4454483.0,3842389.0,5536268.0,453937.0,860771.0,671348.0,976060.0,0.1111111119389534,66.0
2396110.0,4447748.0,3835245.0,5521504.0,453617.0,859445.0,669219.0,971133.0,0.1111111119389534,67.0
2397939.0,4449763.0,3837659.0,5526797.0,454485.0,860707.0,670451.0,973764.0,0.1111111119389534,67.0
2276455.0,4223995.0,3642326.0,5242215.0,430467.0,815714.0,634623.0,922849.0,0.1111111119389534,67.0
2398270.0,4449037.0,3837421.0,5526222.0,453916.0,861089.0,670869.0,973832.0,0.1111111119389534,67.0
2396381.0,4448262.0,3836537.0,5523113.0,454765.0,859830.0,670595.0,973817.0,0.1428571492433548,67.0
2397943.0,4448567.0,3837454.0,5523379.0,454294.0,860065.0,670147.0,973768.0,0.1111111119389534,67.0
2400596.0,4453297.0,3839737.0,5530345.0,455054.0,862251.0,672890.0,977703.0,0.1111111119389534,67.0
2397394.0,4447835.0,3835548.0,5522015.0,454691.0,861760.0,671060.0,975770.0,0.1111111119389534,67.0
2400408.0,4453623.0,3842691.0,5533257.0,455940.0,863793.0,673108.0,978827.0,0.1111111119389534,67.0
2398020.0,4449463.0,3835710.0,5520550.0,455113.0,862498.0,671582.0,974413.0,0.1111111119389534,67.0
2401645.0,4455432.0,3842068.0,5532622.0,456379.0,863094.0,673559.0,978824.0,0.1111111119389534,67.0
2398374.0,4448875.0,3835205.0,5518889.0,454928.0,861003.0,671079.0,975080.0,0.1111111119389534,67.0
2401745.0,4453881.0,3839163.0,5527018.0,456316.0,863232.0,672255.0,976730.0,0.1111111119389534,67.0
2399873.0,4451058.0,3837964.0,5520816.0,456257.0,863501.0,672600.0,975720.0,0.1111111119389534,67.0
2400905.0,4451924.0,3838254.0,5522075.0,455285.0,862211.0,671625.0,974746.0,0.1111111119389534,67.0
2402754.0,4454892.0,3841171.0,5528321.0,456371.0,863831.0,672719.0,976618.0,0.1111111119389534,67.0
2402754.0,4454892.0,3841171.0,5528321.0,456371.0,863831.0,672719.0,976618.0,0.1111111119389534,66.0
2401430.0,4453643.0,3840445.0,5523742.0,456708.0,862844.0,672427.0,976045.0,0.1111111119389534,66.0
2402435.0,4453011.0,3838792.0,5522186.0,457283.0,863618.0,672736.0,975540.0,0.1428571492433548,66.0
2403631.0,4457966.0,3844840.0,5531738.0,457717.0,865231.0,674904.0,979097.0,0.1428571492433548,66.0
2403609.0,4453858.0,3840437.0,5522865.0,457942.0,864460.0,673552.0,976602.0,0.1428571492433548,66.0
2402404.0,4454670.0,3840829.0,5523586.0,457587.0,864377.0,673940.0,976966.0,0.1428571492433548,66.0
2404576.0,4455934.0,3842581.0,5527521.0,458494.0,864709.0,675182.0,978999.0,0.1428571492433548,66.0
2404309.0,4455559.0,3842556.0,5526139.0,457685.0,866056.0,675368.0,977710.0,0.1428571492433548,66.0
2406997.0,4461159.0,3849693.0,5539208.0,458452.0,867141.0,676720.0,982452.0,0.1111111119389534,66.0
2407243.0,4459106.0,3844766.0,5532666.0,459626.0,867420.0,675187.0,980376.0,0.1111111119389534,66.0
2408386.0,4462197.0,3849079.0,5537987.0,458240.0,868253.0,677540.0,982398.0,0.1111111119389534,66.0
2406637.0,4459033.0,3846233.0,5534352.0,458668.0,867016.0,676338.0,982169.0,0.1111111119389534,66.0
2405570.0,4456668.0,3841958.0,5525200.0,459014.0,865489.0,673383.0,978492.0,0.1111111119389534,66.0
2405477.0,4459786.0,3844461.0,5531068.0,459551.0,866976.0,676045.0,981343.0,0.1428571492433548,66.0
2404630.0,4452697.0,3839400.0,5519631.0,457445.0,864580.0,673619.0,976640.0,0.1111111119389534,66.0
2406846.0,4459331.0,3844912.0,5530928.0,458807.0,865958.0,675376.0,980681.0,0.1111111119389534,66.0
2404785.0,4454236.0,3840353.0,5521854.0,458457.0,865776.0,673963.0,977022.0,0.1111111119389534,66.0
2407511.0,4458308.0,3844485.0,5530932.0,458904.0,867177.0,674753.0,980168.0,0.1111111119389534,67.0
2405710.0,4455270.0,3840450.0,5522657.0,458264.0,864942.0,673552.0,978127.0,0.1111111119389534,67.0
2404407.0,4454204.0,3839326.0,5519232.0,457543.0,864808.0,674068.0,977211.0,0.1111111119389534,67.0
2405530.0,4454839.0,3840477.0,5521545.0,457799.0,865559.0,673915.0,976841.0,0.1111111119389534,67.0
2402319.0,4449701.0,3835343.0,5511630.0,457514.0,862738.0,672191.0,975109.0,0.1111111119389534,67.0
2282886.0,4230368.0,3646555.0,5242450.0,434474.0,821510.0,640124.0,928721.0,0.1111111119389534,67.0
2399368.0,4445457.0,3830508.0,5504126.0,456990.0,862299.0,670923.0,973261.0,0.1111111119389534,67.0
2279910.0,4222580.0,3638918.0,5230859.0,433621.0,819156.0,637335.0,923215.0,0.1111111119389534,67.0
2396899.0,4443636.0,3830386.0,5503511.0,455850.0,862398.0,671608.0,973764.0,0.1111111119389534,68.0
2396899.0,4443636.0,3830386.0,5503511.0,455850.0,862398.0,671608.0,973764.0,0.1111111119389534,68.0
2396827.0,4440683.0,3826352.0,5496722.0,456573.0,862270.0,671507.0,971596.0,0.1428571492433548,68.0
2394723.0,4437983.0,3823389.0,5492981.0,455092.0,860035.0,669911.0,970570.0,0.1111111119389534,68.0
2394723.0,4437983.0,3823389.0,5492981.0,455092.0,860035.0,669911.0,970570.0,0.1111111119389534,68.0
2277090.0,4217666.0,3633588.0,5222124.0,433075.0,817367.0,635698.0,921863.0,0.1111111119389534,68.0
2395639.0,4438215.0,3823718.0,5493149.0,456547.0,859696.0,668835.0,969755.0,0.1428571492433548,68.0
2398061.0,4442460.0,3827940.0,5504526.0,455497.0,861534.0,670139.0,971789.0,0.1111111119389534,68.0
2397346.0,4441723.0,3827450.0,5501334.0,455728.0,860034.0,670398.0,970828.0,0.1428571492433548,68.0
2401183.0,4449638.0,3836219.0,5515729.0,456795.0,863096.0,672560.0,975551.0,0.1111111119389534,68.0
2399599.0,4447563.0,3832532.0,5509350.0,456299.0,862805.0,671854.0,972900.0,0.1428571492433548,68.0
2401832.0,4449865.0,3836557.0,5515633.0,457690.0,862660.0,672655.0,975740.0,0.1428571492433548,68.0
2401832.0,4449865.0,3836557.0,5515633.0,457690.0,862660.0,672655.0,975740.0,0.1428571492433548,69.0
2281961.0,4225157.0,3642013.0,5237575.0,433943.0,819394.0,638186.0,925332.0,0.1111111119389534,69.0
2396636.0,4443454.0,3828569.0,5502297.0,455714.0,861953.0,670197.0,971907.0,0.1111111119389534,69.0
2396353.0,4438445.0,3824470.0,5496074.0,456008.0,860190.0,669254.0,970593.0,0.1111111119389534,69.0
2398472.0,4443331.0,3829767.0,5505328.0,456689.0,862201.0,670279.0,972462.0,0.1111111119389534,69.0
2397127.0,4441602.0,3827535.0,5501780.0,456092.0,861237.0,670713.0,972556.0,0.1111111119389534,69.0
2398252.0,4439059.0,3826155.0,5496453.0,456265.0,860102.0,670658.0,969398.0,0.1428571492433548,69.0
2400401.0,4446530.0,3833965.0,5510902.0,457361.0,864555.0,672931.0,973948.0,0.1428571492433548,69.0
2398317.0,4441374.0,3827970.0,5499388.0,457297.0,860600.0,669674.0,969793.0,0.1428571492433548,69.0
2278097.0,4219032.0,3635473.0,5223915.0,432173.0,816647.0,635950.0,920934.0,0.1111111119389534,69.0
2397573.0,4440458.0,3826231.0,5498574.0,455606.0,861470.0,669991.0,970981.0,0.1111111119389534,69.0
2398966.0,4441786.0,3827094.0,5501271.0,456823.0,860964.0,669935.0,971004.0,0.1428571492433548,69.0
2402808.0,4450671.0,3837291.0,5516540.0,457548.0,864106.0,672731.0,975364.0,0.1111111119389534,69.0
2288289.0,4236825.0,3655284.0,5254909.0,433214.0,819378.0,639131.0,925141.0,0.1111111119389534,69.0
2425137.0,4488332.0,3878699.0,5577332.0,458787.0,864399.0,675927.0,979822.0,0.1428571492433548,69.0
2427581.0,4495035.0,3884245.0,5585562.0,461056.0,871435.0,681652.0,987379.0,0.1111111119389534,69.0
2413665.0,4469562.0,3865048.0,5553204.0,455674.0,859483.0,673323.0,975425.0,0.1428571492433548,69.0
2426660.0,4490816.0,3876301.0,5575897.0,466109.0,877775.0,687512.0,997498.0,0.1428571492433548,69.0
2417970.0,4473988.0,3860102.0,5552072.0,466322.0,878293.0,685281.0,996548.0,0.1111111119389534,69.0
2419833.0,4477815.0,3863993.0,5560775.0,467099.0,879943.0,688363.0,1000767.0,0.1111111119389534,69.0
2418304.0,4468880.0,3856058.0,5546053.0,466935.0,876372.0,684744.0,995390.0,0.1428571492433548,74.0
2406763.0,4452861.0,3837850.0,5515799.0,463264.0,872608.0,680357.0,986460.0,0.1428571492433548,74.0
2402046.0,4439456.0,3822728.0,5489339.0,461670.0,867677.0,675310.0,979370.0,0.1428571492433548,74.0
2397755.0,4434830.0,3819964.0,5485412.0,460213.0,866012.0,675263.0,978408.0,0.1428571492433548,74.0
2393412.0,4428006.0,3813334.0,5472486.0,458647.0,863771.0,672517.0,974047.0,0.1428571492433548,76.0
2389932.0,4423339.0,3807819.0,5463345.0,456300.0,861454.0,670267.0,970354.0,0.1111111119389534,76.0
2391753.0,4426345.0,3811269.0,5469906.0,457634.0,862637.0,672258.0,973531.0,0.1111111119389534,76.0
2270480.0,4203205.0,3619384.0,5193336.0,434497.0,818537.0,636468.0,921870.0,0.1428571492433548,76.0
2388358.0,4422329.0,3806930.0,5462187.0,455005.0,860243.0,668166.0,967516.0,0.1111111119389534,76.0
2391603.0,4426988.0,3812910.0,5472009.0,457354.0,861042.0,670308.0,970902.0,0.1428571492433548,77.0
2391603.0,4426988.0,3812910.0,5472009.0,457354.0,861042.0,670308.0,970902.0,0.1428571492433548,77.0
2391627.0,4427361.0,3814164.0,5475528.0,455490.0,861253.0,671221.0,970989.0,0.1111111119389534,77.0
2390491.0,4427695.0,3813240.0,5475634.0,457021.0,861476.0,670163.0,970875.0,0.1428571492433548,77.0
2387527.0,4422328.0,3808480.0,5467779.0,454852.0,859111.0,668661.0,968591.0,0.1111111119389534,77.0
2389162.0,4425181.0,3812055.0,5471524.0,456513.0,861446.0,670189.0,969225.0,0.1428571492433548,77.0
2388020.0,4424082.0,3810917.0,5471423.0,455571.0,860857.0,670047.0,970411.0,0.1111111119389534,77.0
2386529.0,4419372.0,3806557.0,5462486.0,455196.0,859250.0,668444.0,968781.0,0.1111111119389534,77.0
2387715.0,4423570.0,3810766.0,5471023.0,456949.0,861504.0,671153.0,971897.0,0.1428571492433548,77.0
2386304.0,4419421.0,3807419.0,5466347.0,457074.0,861016.0,670436.0,971768.0,0.1428571492433548,77.0
2265950.0,4197416.0,3614527.0,5188612.0,434045.0,818141.0,635917.0,922636.0,0.1111111119389534,77.0
2387787.0,4422651.0,3809665.0,5471614.0,456889.0,862577.0,673273.0,974404.0,0.1428571492433548,77.0
2387248.0,4421534.0,3808100.0,5466719.0,457080.0,862377.0,671504.0,972352.0,0.1428571492433548,77.0
2388074.0,4422460.0,3809183.0,5468810.0,457607.0,863037.0,672020.0,975116.0,0.1111111119389534,77.0
2390271.0,4428169.0,3813065.0,5477423.0,458669.0,864647.0,673966.0,977805.0,0.1111111119389534,77.0
2390556.0,4426901.0,3812741.0,5473545.0,458679.0,864604.0,673436.0,976190.0,0.1111111119389534,77.0
2391580.0,4427436.0,3813672.0,5474435.0,459402.0,865254.0,674365.0,976095.0,0.1428571492433548,77.0
2393934.0,4431546.0,3816741.0,5481136.0,460086.0,865801.0,675231.0,979250.0,0.1428571492433548,77.0
2392358.0,4428286.0,3812512.0,5472937.0,458392.0,865265.0,673445.0,975738.0,0.1111111119389534,76.0
2392708.0,4428053.0,3813359.0,5473562.0,458536.0,864510.0,673560.0,976131.0,0.1111111119389534,76.0
2394383.0,4428351.0,3814821.0,5477644.0,460076.0,866756.0,674478.0,978224.0,0.1111111119389534,76.0
2391845.0,4427290.0,3811832.0,5471616.0,459810.0,865227.0,675427.0,978017.0,0.1428571492433548,76.0
2394643.0,4430156.0,3817198.0,5478596.0,459480.0,865878.0,675409.0,979313.0,0.1111111119389534,76.0
2394972.0,4433194.0,3817104.0,5480878.0,460480.0,867002.0,675221.0,980304.0,0.1111111119389534,76.0
2394136.0,4430762.0,3817002.0,5478559.0,459079.0,866652.0,675360.0,980290.0,0.1111111119389534,76.0
2397414.0,4434576.0,3819201.0,5484216.0,460506.0,867919.0,675673.0,980662.0,0.1111111119389534,76.0
2397414.0,4434576.0,3819201.0,5484216.0,460506.0,867919.0,675673.0,980662.0,0.1111111119389534,76.0
2397961.0,4435200.0,3821365.0,5486582.0,461016.0,868790.0,676803.0,981722.0,0.1111111119389534,76.0
2395649.0,4430764.0,3816813.0,5477061.0,460879.0,866479.0,675079.0,978978.0,0.1111111119389534,77.0
2394284.0,4429309.0,3813052.0,5471877.0,460684.0,867526.0,675265.0,978251.0,0.1111111119389534,77.0
2390803.0,4421290.0,3804421.0,5457674.0,459050.0,863576.0,672865.0,973504.0,0.1428571492433548,77.0
2389344.0,4417413.0,3802162.0,5451569.0,458035.0,862869.0,670719.0,970447.0,0.1111111119389534,77.0
2389283.0,4418157.0,3801907.0,5451970.0,457663.0,862915.0,670950.0,971707.0,0.1111111119389534,78.0
2384362.0,4410463.0,3795217.0,5437382.0,456657.0,860236.0,669265.0,966140.0,0.1428571492433548,78.0
2382983.0,4406038.0,3789283.0,5429465.0,456157.0,857613.0,667074.0,963846.0,0.1428571492433548,79.0
2384524.0,4410019.0,3794038.0,5435730.0,455966.0,858036.0,667477.0,965960.0,0.1111111119389534,79.0
2381760.0,4405227.0,3789195.0,5428386.0,454908.0,857531.0,665563.0,963181.0,0.1111111119389534,79.0
2382265.0,4406701.0,3790417.0,5428353.0,454759.0,858068.0,666988.0,961861.0,0.1428571492433548,79.0
2383874.0,4411202.0,3796205.0,5438669.0,454851.0,858515.0,667343.0,964927.0,0.1111111119389534,79.0
2382950.0,4406901.0,3792025.0,5431487.0,455478.0,856587.0,666677.0,962080.0,0.1428571492433548,79.0
2381253.0,4405101.0,3787194.0,5426289.0,453472.0,855521.0,663536.0,959016.0,0.1111111119389534,80.0
2383371.0,4408776.0,3792722.0,5435136.0,454652.0,856748.0,665315.0,962939.0,0.1111111119389534,80.0
2380472.0,4404449.0,3789032.0,5427465.0,454430.0,855733.0,663168.0,961380.0,0.1111111119389534,80.0
2379815.0,4402614.0,3786588.0,5424250.0,453099.0,854012.0,663085.0,957840.0,0.1111111119389534,80.0
2383290.0,4407955.0,3792477.0,5435889.0,454222.0,856215.0,664857.0,962190.0,0.1111111119389534,80.0
2379454.0,4403707.0,3789198.0,5429067.0,453293.0,855148.0,664133.0,960884.0,0.1111111119389534,80.0
2380749.0,4404841.0,3788637.0,5429094.0,452131.0,855214.0,663876.0,958802.0,0.1111111119389534,80.0
2382542.0,4408651.0,3793754.0,5438825.0,453183.0,856393.0,665699.0,962880.0,0.1111111119389534,80.0
2382519.0,4406837.0,3792517.0,5435389.0,454318.0,854846.0,665423.0,961722.0,0.1428571492433548,80.0
2382519.0,4406837.0,3792517.0,5435389.0,454318.0,854846.0,665423.0,961722.0,0.1428571492433548,80.0
2385246.0,4411196.0,3794687.0,5445886.0,455948.0,858453.0,665999.0,964638.0,0.1111111119389534,80.0
2385331.0,4411609.0,3795641.0,5444443.0,455294.0,857869.0,666751.0,966043.0,0.1111111119389534,80.0
2385331.0,4411609.0,3795641.0,5444443.0,455294.0,857869.0,666751.0,966043.0,0.1111111119389534,79.0
2387177.0,4412546.0,3796855.0,5445790.0,456474.0,858335.0,667429.0,967544.0,0.1111111119389534,79.0
2386897.0,4413834.0,3797720.0,5447344.0,456835.0,859661.0,668474.0,967241.0,0.1428571492433548,79.0
2391082.0,4421281.0,3806013.0,5460566.0,458249.0,863339.0,671738.0,973666.0,0.1111111119389534,79.0
2391523.0,4419440.0,3805215.0,5457194.0,458530.0,861961.0,670872.0,971785.0,0.1111111119389534,79.0
2392431.0,4424005.0,3810225.0,5464097.0,459481.0,863455.0,673800.0,975598.0,0.1428571492433548,78.0
2396189.0,4429963.0,3814971.0,5474772.0,460440.0,866172.0,673887.0,978173.0,0.1111111119389534,78.0
2396090.0,4428770.0,3815499.0,5473426.0,460103.0,866013.0,674944.0,976931.0,0.1111111119389534,78.0
2400887.0,4435105.0,3819828.0,5483494.0,461701.0,868149.0,675887.0,981442.0,0.1111111119389534,77.0
2399076.0,4434280.0,3820108.0,5481869.0,461221.0,868349.0,675806.0,981788.0,0.1111111119389534,77.0
2397377.0,4428984.0,3815134.0,5472251.0,462098.0,867319.0,675872.0,978828.0,0.1428571492433548,77.0
2400434.0,4432719.0,3818491.0,5479666.0,461277.0,868134.0,676009.0,981509.0,0.1111111119389534,76.0
2395302.0,4425869.0,3809797.0,5463326.0,461124.0,866463.0,674211.0,977237.0,0.1111111119389534,76.0
2393660.0,4421629.0,3805184.0,5457007.0,461140.0,865852.0,673016.0,974715.0,0.1428571492433548,76.0
2395079.0,4424180.0,3807887.0,5462214.0,460588.0,866050.0,674952.0,976771.0,0.1428571492433548,76.0
2395678.0,4420077.0,3802741.0,5442766.0,459952.0,862325.0,670782.0,969329.0,0.1428571492433548,78.0
2399168.0,4426417.0,3811213.0,5457477.0,460540.0,864053.0,672775.0,973902.0,0.1111111119389534,77.0
2399168.0,4426417.0,3811213.0,5457477.0,460540.0,864053.0,672775.0,973902.0,0.1111111119389534,77.0
2400567.0,4429752.0,3813935.0,5462158.0,460809.0,864483.0,673396.0,974119.0,0.1428571492433548,76.0
2401125.0,4430156.0,3813091.0,5463199.0,461449.0,864020.0,673856.0,973422.0,0.1428571492433548,76.0
2399535.0,4427076.0,3810148.0,5454282.0,460645.0,862470.0,671311.0,968797.0,0.1428571492433548,76.0
2400296.0,4426022.0,3809184.0,5452411.0,460664.0,862695.0,672070.0,969070.0,0.1428571492433548,75.0
2401908.0,4432313.0,3816129.0,5465275.0,461441.0,865470.0,674046.0,973508.0,0.1428571492433548,75.0
2402020.0,4429686.0,3812460.0,5458100.0,461877.0,864709.0,673462.0,972573.0,0.1428571492433548,75.0
2401489.0,4428468.0,3809878.0,5453911.0,461786.0,864989.0,673026.0,970241.0,0.1794871836900711,74.0
2404207.0,4433713.0,3817062.0,5464490.0,463804.0,866998.0,676186.0,975723.0,0.1794871836900711,74.0
2402613.0,4428280.0,3811576.0,5454171.0,464352.0,866715.0,675606.0,974085.0,0.1794871836900711,74.0
2402083.0,4427685.0,3810451.0,5450479.0,463339.0,866509.0,675612.0,971999.0,0.1794871836900711,74.0
2404828.0,4433066.0,3814936.0,5460066.0,464621.0,869067.0,677894.0,977996.0,0.1794871836900711,75.0
2404808.0,4429854.0,3811040.0,5452471.0,465543.0,868352.0,676818.0,977122.0,0.1794871836900711,75.0
2401989.0,4427233.0,3807987.0,5445976.0,465355.0,869322.0,676528.0,975451.0,0.1794871836900711,75.0
2403815.0,4430511.0,3811764.0,5452584.0,465668.0,871003.0,679742.0,979770.0,0.1794871836900711,75.0
2402512.0,4425765.0,3807094.0,5444210.0,465996.0,871752.0,678436.0,977861.0,0.1428571492433548,76.0
2403398.0,4426677.0,3807454.0,5442521.0,466168.0,870717.0,679156.0,977605.0,0.1794871836900711,76.0
2407470.0,4433630.0,3814103.0,5457809.0,468373.0,875130.0,680812.0,982301.0,0.1428571492433548,76.0
2407918.0,4433839.0,3814989.0,5456815.0,467783.0,873858.0,681767.0,983753.0,0.1428571492433548,76.0
2408750.0,4435296.0,3815785.0,5459204.0,468610.0,874914.0,682690.0,983639.0,0.1794871836900711,77.0
2414731.0,4445015.0,3826827.0,5480456.0,470650.0,879128.0,686334.0,990909.0,0.1428571492433548,77.0
2414547.0,4446456.0,3828514.0,5480801.0,470291.0,878136.0,685957.0,990602.0,0.1428571492433548,78.0
2418778.0,4455087.0,3837170.0,5497516.0,471635.0,881447.0,689252.0,995402.0,0.1794871836900711,78.0
2418695.0,4454297.0,3837847.0,5498795.0,471204.0,882040.0,687649.0,996003.0,0.1111111119389534,78.0
2416229.0,4449424.0,3833206.0,5489207.0,470806.0,879535.0,688322.0,992932.0,0.1794871836900711,78.0
2411951.0,4442309.0,3828386.0,5482982.0,469629.0,878920.0,687247.0,992171.0,0.1428571492433548,78.0
2411951.0,4442309.0,3828386.0,5482982.0,469629.0,878920.0,687247.0,992171.0,0.1428571492433548,78.0
2406514.0,4432870.0,3815593.0,5462238.0,468977.0,876457.0,683336.0,987073.0,0.1428571492433548,78.0
2399330.0,4417988.0,3800743.0,5435889.0,466665.0,871991.0,679275.0,978849.0,0.1794871836900711,78.0
2395489.0,4411637.0,3794436.0,5426798.0,465966.0,869771.0,676852.0,975739.0,0.1794871836900711,78.0
2389836.0,4401352.0,3784475.0,5409568.0,463060.0,866434.0,675185.0,972268.0,0.1428571492433548,78.0
2386226.0,4396481.0,3779311.0,5399941.0,461337.0,863417.0,672710.0,968114.0,0.1428571492433548,76.0
2383930.0,4393692.0,3776747.0,5397705.0,461839.0,861893.0,670369.0,966581.0,0.1794871836900711,76.0
2381856.0,4387949.0,3772110.0,5388826.0,460329.0,859042.0,669188.0,963619.0,0.1794871836900711,76.0
2384938.0,4395063.0,3778116.0,5401230.0,460272.0,861515.0,672381.0,967331.0,0.1794871836900711,75.0
2380831.0,4389043.0,3772300.0,5392839.0,458821.0,858194.0,669011.0,962999.0,0.1794871836900711,74.0
2383060.0,4394684.0,3779672.0,5403997.0,459048.0,861783.0,670737.0,965526.0,0.1428571492433548,74.0
2381279.0,4391482.0,3776375.0,5396975.0,458599.0,859551.0,669648.0,963107.0,0.1794871836900711,73.0
2382837.0,4394342.0,3779586.0,5402305.0,458697.0,859385.0,668446.0,963181.0,0.1428571492433548,73.0
2382327.0,4392980.0,3778491.0,5402203.0,458871.0,858714.0,669197.0,963470.0,0.1794871836900711,72.0
2381431.0,4393774.0,3778030.0,5401690.0,458631.0,859882.0,668086.0,961426.0,0.1794871836900711,72.0
2382157.0,4394540.0,3781496.0,5406950.0,457693.0,859933.0,670233.0,965028.0,0.1428571492433548,70.0
2382081.0,4392228.0,3778507.0,5404406.0,457811.0,859190.0,668700.0,963428.0,0.1428571492433548,70.0
2381679.0,4394715.0,3780356.0,5409702.0,458919.0,859934.0,669376.0,966970.0,0.1428571492433548,70.0
2379096.0,4388596.0,3773490.0,5395813.0,458441.0,859782.0,669378.0,964462.0,0.1428571492433548,70.0
2380399.0,4391761.0,3778354.0,5404028.0,459111.0,861657.0,670723.0,968421.0,0.1111111119389534,69.0
2376371.0,4384470.0,3769631.0,5388420.0,459029.0,860003.0,668799.0,964880.0,0.1428571492433548,68.0
2373672.0,4378696.0,3762662.0,5377879.0,457808.0,857726.0,667800.0,961290.0,0.1794871836900711,68.0
2373154.0,4378446.0,3762648.0,5378935.0,458820.0,857362.0,667964.0,963914.0,0.1794871836900711,67.0
2369898.0,4372356.0,3756351.0,5365310.0,456385.0,856124.0,666019.0,959615.0,0.1428571492433548,67.0
2371819.0,4375034.0,3759487.0,5371012.0,458250.0,856690.0,667116.0,959977.0,0.1794871836900711,67.0
2371819.0,4375034.0,3759487.0,5371012.0,458250.0,856690.0,667116.0,959977.0,0.1794871836900711,67.0
2373728.0,4378852.0,3763766.0,5377796.0,457248.0,858210.0,667942.0,962287.0,0.1428571492433548,67.0
2377641.0,4385682.0,3769584.0,5389508.0,459817.0,860691.0,669876.0,965090.0,0.1794871836900711,67.0
2377992.0,4385439.0,3770433.0,5390609.0,459364.0,859480.0,669167.0,965921.0,0.1428571492433548,67.0
2380532.0,4390007.0,3774556.0,5395635.0,459168.0,861267.0,671684.0,967824.0,0.1428571492433548,67.0
2383546.0,4395844.0,3782603.0,5410270.0,460756.0,863362.0,672911.0,972214.0,0.1428571492433548,67.0
2382985.0,4395809.0,3780246.0,5404867.0,460996.0,863454.0,674042.0,968955.0,0.1794871836900711,68.0
2387169.0,4400489.0,3786360.0,5416823.0,462132.0,864783.0,673971.0,973338.0,0.1428571492433548,68.0
2383033.0,4392454.0,3777396.0,5403013.0,461578.0,861192.0,671584.0,969493.0,0.1794871836900711,68.0
2382895.0,4390728.0,3776605.0,5400901.0,460276.0,861183.0,671633.0,968283.0,0.1428571492433548,69.0
2378010.0,4385125.0,3769719.0,5388896.0,458747.0,860179.0,669160.0,965229.0,0.1428571492433548,70.0
2374695.0,4377890.0,3763418.0,5376977.0,458208.0,857718.0,668012.0,963204.0,0.1428571492433548,70.0
2374953.0,4378094.0,3762867.0,5377864.0,458014.0,858360.0,667774.0,963761.0,0.1428571492433548,70.0
2372659.0,4374319.0,3758869.0,5369796.0,457714.0,856269.0,667318.0,961206.0,0.1428571492433548,70.0
2374794.0,4379709.0,3764301.0,5381142.0,458000.0,859642.0,668592.0,964403.0,0.1428571492433548,70.0
2370586.0,4371848.0,3756796.0,5367320.0,456149.0,855142.0,665278.0,959354.0,0.1428571492433548,70.0
2371561.0,4374623.0,3757831.0,5368652.0,456497.0,856027.0,664671.0,958421.0,0.1428571492433548,71.0
2370739.0,4370717.0,3755760.0,5366107.0,455723.0,854111.0,664755.0,956285.0,0.1428571492433548,71.0
2367756.0,4369242.0,3753469.0,5359024.0,454617.0,852895.0,662596.0,953038.0,0.1428571492433548,71.0
2372104.0,4376184.0,3760369.0,5373004.0,456245.0,854977.0,664917.0,958026.0,0.1428571492433548,71.0
2370794.0,4371988.0,3757892.0,5366875.0,455193.0,851641.0,663041.0,953440.0,0.1794871836900711,71.0
2374587.0,4380350.0,3766186.0,5381910.0,454973.0,853649.0,664878.0,957425.0,0.1428571492433548,70.0
2375156.0,4380609.0,3766815.0,5384306.0,456564.0,854777.0,665048.0,959680.0,0.1428571492433548,70.0
2375368.0,4383486.0,3768823.0,5385654.0,456778.0,856421.0,666183.0,960138.0,0.1428571492433548,70.0
2379141.0,4389081.0,3775633.0,5399079.0,457663.0,858329.0,668038.0,964336.0,0.1428571492433548,70.0
2364818.0,4360492.0,3746188.0,5343972.0,455147.0,851400.0,662034.0,950579.0,0.1794871836900711,74.0
2367018.0,4363898.0,3749098.0,5350483.0,454065.0,851814.0,661931.0,952112.0,0.1428571492433548,74.0
2364470.0,4363028.0,3746162.0,5345721.0,454320.0,852149.0,661864.0,950598.0,0.1794871836900711,74.0
2365513.0,4361491.0,3744812.0,5345145.0,454785.0,852342.0,662220.0,950414.0,0.1794871836900711,74.0
2368161.0,4366904.0,3752155.0,5358895.0,456375.0,853462.0,662942.0,955077.0,0.1428571492433548,74.0
2366917.0,4366522.0,3751097.0,5355898.0,454738.0,853059.0,663197.0,954313.0,0.1428571492433548,74.0
2369341.0,4371016.0,3756440.0,5365517.0,455726.0,854925.0,665284.0,957526.0,0.1428571492433548,74.0
2366578.0,4367204.0,3752697.0,5358903.0,454926.0,853920.0,663520.0,955727.0,0.1428571492433548,74.0
2365165.0,4363701.0,3749152.0,5353128.0,453143.0,851851.0,661397.0,952699.0,0.1111111119389534,74.0
2366155.0,4366128.0,3752230.0,5358655.0,454255.0,852125.0,663518.0,955262.0,0.1428571492433548,74.0
2364878.0,4360689.0,3744609.0,5344224.0,454224.0,852086.0,662248.0,949976.0,0.1794871836900711,74.0
2365764.0,4363748.0,3748949.0,5353492.0,454647.0,851618.0,662426.0,953338.0,0.1428571492433548,74.0
2364944.0,4361104.0,3746269.0,5347997.0,453632.0,851582.0,662006.0,950050.0,0.1428571492433548,74.0
2365039.0,4361711.0,3748058.0,5349845.0,453679.0,851446.0,660958.0,951387.0,0.1428571492433548,74.0
2371498.0,4372746.0,3756827.0,5366164.0,455125.0,854534.0,663911.0,953913.0,0.1428571492433548,74.0
2370966.0,4369493.0,3754456.0,5362214.0,455777.0,853918.0,664290.0,954492.0,0.1794871836900711,74.0
2370966.0,4369493.0,3754456.0,5362214.0,455777.0,853918.0,664290.0,954492.0,0.1794871836900711,73.0
2372715.0,4372874.0,3756156.0,5366607.0,456793.0,854433.0,664373.0,955536.0,0.1794871836900711,73.0
2373566.0,4372779.0,3757273.0,5365246.0,456257.0,853727.0,663750.0,954282.0,0.1794871836900711,73.0
2376058.0,4379059.0,3762302.0,5373326.0,457804.0,857006.0,665312.0,958243.0,0.1428571492433548,73.0
2376058.0,4379059.0,3762302.0,5373326.0,457804.0,857006.0,665312.0,958243.0,0.1428571492433548,73.0
2375360.0,4378889.0,3765146.0,5376982.0,457115.0,857389.0,667480.0,959540.0,0.1428571492433548,73.0
2376279.0,4379046.0,3764639.0,5379804.0,458503.0,858428.0,667308.0,961010.0,0.1428571492433548,73.0
2376222.0,4376172.0,3762166.0,5372049.0,459091.0,856740.0,667236.0,959393.0,0.1794871836900711,72.0
2375651.0,4377412.0,3761900.0,5370223.0,458395.0,857517.0,667812.0,960569.0,0.1428571492433548,72.0
2377790.0,4379872.0,3765106.0,5378801.0,459408.0,859292.0,669384.0,963687.0,0.1428571492433548,73.0
2374445.0,4373356.0,3758084.0,5364499.0,459823.0,858694.0,667220.0,961840.0,0.1428571492433548,73.0
2376172.0,4376946.0,3761499.0,5372108.0,460661.0,861031.0,669885.0,964483.0,0.1428571492433548,73.0
2374441.0,4373162.0,3756344.0,5361091.0,460027.0,859359.0,667552.0,962094.0,0.1428571492433548,73.0
2375880.0,4377046.0,3759041.0,5366866.0,459811.0,861407.0,668981.0,962120.0,0.1428571492433548,73.0
2376577.0,4378347.0,3762815.0,5372108.0,460632.0,861659.0,670863.0,964502.0,0.1794871836900711,73.0
2377435.0,4379081.0,3761458.0,5370651.0,460702.0,861794.0,670105.0,965064.0,0.1428571492433548,73.0
2382887.0,4388945.0,3773424.0,5389544.0,462997.0,865559.0,674882.0,971228.0,0.1794871836900711,73.0
2382561.0,4384056.0,3768580.0,5381388.0,462505.0,862962.0,673541.0,969350.0,0.1794871836900711,73.0
2383721.0,4387014.0,3771833.0,5386037.0,463214.0,865705.0,673619.0,970119.0,0.1428571492433548,73.0
2383314.0,4386866.0,3770260.0,5384299.0,463172.0,864794.0,673778.0,971396.0,0.1428571492433548,73.0
2381822.0,4383904.0,3767270.0,5377251.0,461821.0,864181.0,672077.0,968090.0,0.1428571492433548,73.0
2383419.0,4387838.0,3771325.0,5387356.0,462857.0,864367.0,674762.0,970784.0,0.1794871836900711,73.0
2379937.0,4382290.0,3766778.0,5377361.0,462428.0,863464.0,671976.0,967146.0,0.1794871836900711,73.0
2383792.0,4388366.0,3772932.0,5391331.0,462835.0,864352.0,673537.0,971670.0,0.1428571492433548,72.0
2381399.0,4384114.0,3769022.0,5382960.0,461533.0,863528.0,673421.0,968249.0,0.1428571492433548,72.0
2385491.0,4391061.0,3775333.0,5394316.0,463520.0,865487.0,674536.0,971826.0,0.1428571492433548,72.0
2383015.0,4386850.0,3770694.0,5386770.0,462905.0,864203.0,673937.0,970218.0,0.1794871836900711,72.0
2383277.0,4388566.0,3772390.0,5387295.0,463544.0,864914.0,674123.0,969901.0,0.1794871836900711,72.0
2383124.0,4385766.0,3770812.0,5386925.0,461789.0,863619.0,672758.0,968889.0,0.1428571492433548,71.0
2380197.0,4384462.0,3767978.0,5381056.0,461120.0,861546.0,670055.0,966688.0,0.1428571492433548,71.0
2380197.0,4384462.0,3767978.0,5381056.0,461120.0,861546.0,670055.0,966688.0,0.1428571492433548,71.0
2382127.0,4385179.0,3769100.0,5384979.0,461616.0,863254.0,671852.0,968344.0,0.1428571492433548,71.0
2376105.0,4377498.0,3761080.0,5369117.0,458946.0,859249.0,668730.0,962253.0,0.1428571492433548,71.0
2371572.0,4366150.0,3751325.0,5349871.0,457522.0,854990.0,665907.0,956253.0,0.1794871836900711,69.0
2371848.0,4371460.0,3754487.0,5356589.0,457352.0,857684.0,666669.0,957328.0,0.1428571492433548,69.0
2366665.0,4360627.0,3743428.0,5337521.0,456247.0,853007.0,662635.0,951987.0,0.1794871836900711,68.0
2368348.0,4362916.0,3745597.0,5341831.0,457375.0,854139.0,663228.0,953118.0,0.1794871836900711,68.0
2360329.0,4349950.0,3732871.0,5317822.0,452565.0,847989.0,658361.0,944816.0,0.1428571492433548,68.0
2357560.0,4341361.0,3723501.0,5302906.0,453244.0,846407.0,657493.0,939915.0,0.2222222238779068,67.0
2354005.0,4339306.0,3722535.0,5300952.0,450793.0,846005.0,655682.0,940076.0,0.1428571492433548,67.0
2350019.0,4332865.0,3714749.0,5284099.0,451266.0,844324.0,653938.0,935796.0,0.1794871836900711,67.0
2354979.0,4340492.0,3722835.0,5304575.0,453162.0,847875.0,658493.0,943035.0,0.1794871836900711,66.0
2354229.0,4340303.0,3722311.0,5302854.0,452367.0,845371.0,656074.0,942314.0,0.1794871836900711,66.0
2356133.0,4342920.0,3725069.0,5308829.0,452514.0,847685.0,656981.0,942761.0,0.1428571492433548,66.0
2358233.0,4346818.0,3731050.0,5316267.0,453320.0,848394.0,659125.0,945562.0,0.1794871836900711,66.0
2358128.0,4344409.0,3727537.0,5310175.0,452981.0,848151.0,657671.0,942963.0,0.1794871836900711,66.0
2361061.0,4351881.0,3736257.0,5327279.0,454579.0,850972.0,660856.0,949531.0,0.1428571492433548,66.0
2358093.0,4346363.0,3731337.0,5317759.0,453937.0,848738.0,659058.0,946391.0,0.1794871836900711,66.0
2361530.0,4351530.0,3733918.0,5323378.0,455335.0,849917.0,659443.0,947816.0,0.1794871836900711,66.0
2357832.0,4348178.0,3731080.0,5317852.0,453705.0,851628.0,660534.0,945976.0,0.1794871836900711,67.0
2360477.0,4350820.0,3734883.0,5322208.0,455806.0,852142.0,662450.0,949388.0,0.1794871836900711,67.0
2363746.0,4355174.0,3740387.0,5335313.0,456119.0,852528.0,663448.0,953255.0,0.1794871836900711,67.0
2364704.0,4355156.0,3739170.0,5332618.0,456775.0,854874.0,663228.0,953568.0,0.1428571492433548,67.0
2368719.0,4364079.0,3748546.0,5346858.0,459469.0,859808.0,669417.0,960467.0,0.1794871836900711,67.0
2365871.0,4359773.0,3740395.0,5332322.0,459319.0,860796.0,667388.0,957471.0,0.1428571492433548,67.0
2365871.0,4359773.0,3740395.0,5332322.0,459319.0,860796.0,667388.0,957471.0,0.1428571492433548,68.0
2361751.0,4348836.0,3728317.0,5308931.0,459711.0,857963.0,665051.0,953822.0,0.1794871836900711,69.0
2350623.0,4330534.0,3708973.0,5275893.0,455051.0,850328.0,658951.0,942809.0,0.1794871836900711,69.0
2348886.0,4326219.0,3706532.0,5272418.0,452645.0,847447.0,656352.0,939375.0,0.1794871836900711,69.0
2343625.0,4315501.0,3693676.0,5249329.0,452266.0,847175.0,654113.0,934641.0,0.1794871836900711,69.0
2338911.0,4305771.0,3683867.0,5229602.0,451740.0,842662.0,651944.0,930362.0,0.2222222238779068,69.0
2337228.0,4303784.0,3681708.0,5226444.0,449391.0,840927.0,649933.0,927305.0,0.1794871836900711,70.0
2352078.0,4317037.0,3691756.0,5232618.0,454936.0,845172.0,652849.0,930025.0,0.2222222238779068,71.0
2356416.0,4326101.0,3702330.0,5248573.0,455051.0,846968.0,656562.0,934130.0,0.2222222238779068,71.0
2356459.0,4325848.0,3701185.0,5247695.0,455373.0,846866.0,654922.0,933061.0,0.2222222238779068,71.0
2357977.0,4330079.0,3703455.0,5250808.0,455244.0,849376.0,655776.0,933298.0,0.1794871836900711,71.0
2362714.0,4337131.0,3713746.0,5268067.0,457207.0,850919.0,658094.0,937730.0,0.2222222238779068,71.0
2363721.0,4339879.0,3713760.0,5267017.0,457854.0,853876.0,660379.0,939396.0,0.2222222238779068,71.0
2363192.0,4338321.0,3715324.0,5272073.0,457144.0,851613.0,660296.0,940857.0,0.1794871836900711,71.0
2357917.0,4330378.0,3707303.0,5256568.0,454450.0,848180.0,656595.0,935530.0,0.1794871836900711,71.0
2360127.0,4334698.0,3710823.0,5265823.0,456625.0,850000.0,657777.0,937874.0,0.2222222238779068,71.0
2357291.0,4329075.0,3706369.0,5256082.0,454971.0,849032.0,656374.0,933991.0,0.1794871836900711,70.0
2355045.0,4325682.0,3701875.0,5249828.0,454102.0,846535.0,654483.0,930513.0,0.2222222238779068,70.0
2357507.0,4329434.0,3704611.0,5256192.0,454982.0,846970.0,654296.0,932567.0,0.2222222238779068,70.0
2353762.0,4325159.0,3699613.0,5245708.0,454480.0,845928.0,653208.0,929004.0,0.27272728085517883,70.0
2356709.0,4327354.0,3704532.0,5255114.0,455335.0,846034.0,653862.0,934439.0,0.1794871836900711,69.0
2347413.0,4311027.0,3689280.0,5228808.0,450955.0,840195.0,648569.0,922875.0,0.2222222238779068,69.0
2345149.0,4309881.0,3692371.0,5234657.0,446690.0,830959.0,645080.0,916759.0,0.27272728085517883,69.0
2244256.0,4121876.0,3538296.0,5016110.0,421293.0,784387.0,609546.0,865258.0,0.27272728085517883,69.0
2355306.0,4326284.0,3712036.0,5265341.0,442602.0,824100.0,639943.0,910133.0,0.2222222238779068,69.0
2355564.0,4325705.0,3711152.0,5262520.0,440971.0,822640.0,638415.0,906771.0,0.2222222238779068,69.0
2353099.0,4322869.0,3708394.0,5256497.0,441732.0,822852.0,638701.0,906833.0,0.27272728085517883,68.0
2347046.0,4314383.0,3700790.0,5245863.0,441763.0,823281.0,636255.0,906531.0,0.1794871836900711,68.0
2347280.0,4312756.0,3699653.0,5242530.0,440935.0,819353.0,635678.0,904510.0,0.27272728085517883,68.0
2348023.0,4315749.0,3701967.0,5248412.0,439754.0,820569.0,636770.0,904615.0,0.2222222238779068,67.0
2345072.0,4308652.0,3694558.0,5234073.0,440333.0,819423.0,635941.0,903424.0,0.27272728085517883,67.0
2345254.0,4309249.0,3697149.0,5241618.0,440518.0,822457.0,637859.0,907848.0,0.1794871836900711,67.0
2341781.0,4305444.0,3690728.0,5230001.0,440062.0,821651.0,637198.0,903809.0,0.2222222238779068,66.0
2346406.0,4311266.0,3699188.0,5247789.0,442268.0,823888.0,639211.0,910501.0,0.2222222238779068,66.0
2344027.0,4308250.0,3694484.0,5236102.0,440772.0,822882.0,638985.0,906731.0,0.2222222238779068,66.0
2350022.0,4322473.0,3709990.0,5262444.0,439666.0,821719.0,637958.0,907459.0,0.2222222238779068,66.0
2353531.0,4326081.0,3715498.0,5267346.0,440920.0,822638.0,638942.0,908118.0,0.2222222238779068,66.0
2366150.0,4348556.0,3738411.0,5305288.0,442232.0,826197.0,642338.0,913347.0,0.2222222238779068,66.0
2373924.0,4363568.0,3752086.0,5326884.0,444771.0,829248.0,645583.0,919219.0,0.2222222238779068,66.0
2374756.0,4363279.0,3753663.0,5327183.0,444855.0,827891.0,645959.0,919786.0,0.27272728085517883,66.0
2365056.0,4347852.0,3735415.0,5304599.0,446646.0,834944.0,650792.0,927238.0,0.1794871836900711,65.0
2369878.0,4352674.0,3733186.0,5302425.0,455347.0,849653.0,658618.0,939725.0,0.1794871836900711,65.0
2381024.0,4371896.0,3755193.0,5337900.0,459990.0,855999.0,665737.0,951670.0,0.1794871836900711,65.0
2383191.0,4374020.0,3757283.0,5344467.0,461174.0,858689.0,668269.0,955891.0,0.1794871836900711,65.0
2389978.0,4387527.0,3770453.0,5368103.0,464769.0,863673.0,673355.0,963921.0,0.2222222238779068,65.0
2389978.0,4387527.0,3770453.0,5368103.0,464769.0,863673.0,673355.0,963921.0,0.2222222238779068,65.0
2398525.0,4401183.0,3783288.0,5392543.0,466919.0,869756.0,677922.0,975056.0,0.1428571492433548,65.0
2405465.0,4412329.0,3796585.0,5417166.0,472239.0,876037.0,684425.0,984992.0,0.1794871836900711,65.0
2406792.0,4418522.0,3802445.0,5425078.0,472205.0,880277.0,685753.0,986212.0,0.1428571492433548,65.0
2413650.0,4426703.0,3813760.0,5445461.0,474186.0,880783.0,690654.0,994245.0,0.1794871836900711,65.0
2413875.0,4426585.0,3810764.0,5440261.0,473545.0,882326.0,691822.0,993707.0,0.1794871836900711,65.0
2415727.0,4428530.0,3814373.0,5446036.0,476138.0,883121.0,691117.0,997490.0,0.1428571492433548,65.0
2412246.0,4420627.0,3805362.0,5428994.0,475842.0,882776.0,690733.0,994212.0,0.1794871836900711,66.0
2411130.0,4417480.0,3799190.0,5418738.0,475579.0,883322.0,689450.0,991835.0,0.1428571492433548,66.0
2408106.0,4412794.0,3796358.0,5413056.0,473821.0,881654.0,688684.0,991268.0,0.1428571492433548,66.0
2404500.0,4408251.0,3790336.0,5401238.0,473460.0,878944.0,686523.0,987436.0,0.1428571492433548,66.0
2405724.0,4409765.0,3792323.0,5407806.0,473595.0,880400.0,687773.0,989723.0,0.1428571492433548,66.0
2403339.0,4404462.0,3787279.0,5394174.0,474010.0,879240.0,685751.0,986650.0,0.1428571492433548,66.0
2407561.0,4412319.0,3794088.0,5410217.0,475511.0,881001.0,688588.0,991272.0,0.1794871836900711,66.0
2406323.0,4410560.0,3791434.0,5404132.0,475663.0,880980.0,687350.0,989098.0,0.1794871836900711,66.0
2410718.0,4419051.0,3804188.0,5425237.0,475996.0,884285.0,691624.0,994738.0,0.1794871836900711,66.0
2411250.0,4419725.0,3803979.0,5426602.0,475193.0,883019.0,690076.0,993819.0,0.1428571492433548,66.0
2413565.0,4423931.0,3807672.0,5433323.0,476249.0,883085.0,690385.0,993442.0,0.1794871836900711,67.0
2414301.0,4425739.0,3810656.0,5437075.0,476599.0,884442.0,691489.0,995402.0,0.1794871836900711,67.0
2409805.0,4419113.0,3802916.0,5423697.0,475412.0,879694.0,687946.0,991107.0,0.1794871836900711,67.0
2410045.0,4419030.0,3802814.0,5425873.0,474846.0,881657.0,688434.0,990882.0,0.1794871836900711,67.0
2400887.0,4403461.0,3784338.0,5395689.0,471594.0,876156.0,683593.0,984370.0,0.1428571492433548,67.0
2399024.0,4400451.0,3783394.0,5393890.0,471605.0,876482.0,684159.0,982761.0,0.1794871836900711,67.0
2393182.0,4390099.0,3773052.0,5376373.0,468966.0,870970.0,679671.0,975643.0,0.1794871836900711,67.0
2389416.0,4384014.0,3766019.0,5365010.0,467177.0,869439.0,678057.0,972543.0,0.1794871836900711,67.0
2389673.0,4382351.0,3764618.0,5364764.0,468198.0,869678.0,677928.0,973786.0,0.1794871836900711,67.0
2389673.0,4382351.0,3764618.0,5364764.0,468198.0,869678.0,677928.0,973786.0,0.1794871836900711,67.0
2385951.0,4377471.0,3761137.0,5356329.0,464736.0,867061.0,675940.0,969558.0,0.1428571492433548,67.0
2380907.0,4373150.0,3755403.0,5348944.0,464444.0,864747.0,674029.0,966941.0,0.1794871836900711,67.0
2378784.0,4369363.0,3752577.0,5343660.0,464527.0,862388.0,670943.0,964869.0,0.1794871836900711,67.0
2382817.0,4376908.0,3761143.0,5358938.0,464904.0,865060.0,674810.0,967967.0,0.1794871836900711,67.0
2382532.0,4374259.0,3757494.0,5353745.0,463355.0,864457.0,673744.0,966055.0,0.1794871836900711,68.0
2382917.0,4377482.0,3761813.0,5361496.0,465317.0,864246.0,673358.0,968484.0,0.1794871836900711,68.0
2384470.0,4379448.0,3763351.0,5363982.0,465451.0,865119.0,672781.0,969198.0,0.1428571492433548,68.0
2383876.0,4378326.0,3763688.0,5366243.0,462575.0,863567.0,673760.0,968472.0,0.1428571492433548,68.0
2384315.0,4381740.0,3768454.0,5373789.0,464321.0,865702.0,676050.0,972418.0,0.1428571492433548,68.0
2384493.0,4381532.0,3766975.0,5371309.0,464645.0,865543.0,674853.0,970750.0,0.1428571492433548,69.0
2389048.0,4388796.0,3775962.0,5387840.0,466537.0,868033.0,678221.0,976363.0,0.1794871836900711,69.0
2385711.0,4385221.0,3771167.0,5378325.0,464611.0,866659.0,675576.0,972316.0,0.1428571492433548,69.0
2388015.0,4386449.0,3773837.0,5383222.0,464675.0,865800.0,676245.0,972534.0,0.1428571492433548,70.0
2385608.0,4380442.0,3765542.0,5366709.0,466340.0,867580.0,675120.0,971406.0,0.1428571492433548,65.0
2384985.0,4380715.0,3767672.0,5370673.0,466683.0,868362.0,677718.0,974494.0,0.1794871836900711,65.0
2381786.0,4374335.0,3760278.0,5359651.0,466468.0,867240.0,675715.0,971017.0,0.1794871836900711,65.0
2385693.0,4379619.0,3765034.0,5369052.0,467778.0,868687.0,678048.0,974575.0,0.1794871836900711,65.0
2385509.0,4380914.0,3764721.0,5365754.0,466825.0,870148.0,678796.0,974527.0,0.1794871836900711,65.0
2385509.0,4380914.0,3764721.0,5365754.0,466825.0,870148.0,678796.0,974527.0,0.1794871836900711,65.0
2386955.0,4384248.0,3767643.0,5373384.0,467289.0,870867.0,678979.0,975086.0,0.1794871836900711,65.0
2387568.0,4384646.0,3766793.0,5373492.0,467527.0,871422.0,678901.0,976588.0,0.1428571492433548,65.0
2390675.0,4389523.0,3774018.0,5384871.0,468353.0,872638.0,681334.0,979149.0,0.1794871836900711,65.0
2385964.0,4381209.0,3764351.0,5368252.0,467011.0,869795.0,678132.0,973051.0,0.1794871836900711,65.0
2384955.0,4378306.0,3760957.0,5362833.0,466665.0,869539.0,676399.0,970854.0,0.1794871836900711,65.0
2385156.0,4378999.0,3762791.0,5364356.0,468261.0,869844.0,677234.0,973222.0,0.1794871836900711,66.0
2381417.0,4372311.0,3756374.0,5351405.0,466279.0,867032.0,674107.0,968971.0,0.1794871836900711,66.0
2384890.0,4378892.0,3763084.0,5363774.0,467142.0,868419.0,676436.0,971911.0,0.1794871836900711,66.0
2381287.0,4371993.0,3755315.0,5351841.0,464909.0,867762.0,674986.0,967900.0,0.1428571492433548,66.0
2385200.0,4380139.0,3765843.0,5367500.0,466869.0,869873.0,678994.0,972803.0,0.1794871836900711,66.0
2383712.0,4378113.0,3760617.0,5361105.0,465922.0,867403.0,675014.0,970218.0,0.1794871836900711,66.0
2388514.0,4386544.0,3771745.0,5380720.0,467366.0,869330.0,677536.0,974881.0,0.1794871836900711,67.0
2387084.0,4383928.0,3769600.0,5374145.0,466811.0,869413.0,676923.0,973612.0,0.1428571492433548,68.0
2392589.0,4392650.0,3778105.0,5389538.0,469073.0,871925.0,681540.0,978479.0,0.1794871836900711,68.0
2390256.0,4387590.0,3772158.0,5380914.0,468375.0,870262.0,678736.0,974783.0,0.1794871836900711,68.0
2273771.0,4174547.0,3589837.0,5122999.0,444586.0,828229.0,646304.0,929057.0,0.1794871836900711,68.0
2388910.0,4387293.0,3770963.0,5377482.0,467868.0,870335.0,677886.0,973538.0,0.1794871836900711,68.0
2390566.0,4388172.0,3773474.0,5380772.0,468277.0,870541.0,678257.0,974573.0,0.1794871836900711,68.0
2385684.0,4380794.0,3765750.0,5368308.0,466960.0,867798.0,676018.0,971755.0,0.1794871836900711,68.0
2386380.0,4381876.0,3767410.0,5371151.0,466330.0,867877.0,676652.0,972430.0,0.1794871836900711,68.0
2382410.0,4375674.0,3760411.0,5358179.0,465855.0,867619.0,674002.0,968897.0,0.1428571492433548,68.0
2383861.0,4376752.0,3760511.0,5359627.0,466138.0,867493.0,675039.0,968776.0,0.1794871836900711,68.0
2380524.0,4371914.0,3756093.0,5352089.0,465346.0,867446.0,675051.0,966768.0,0.1794871836900711,68.0
2380463.0,4372416.0,3755758.0,5351385.0,465007.0,865029.0,673031.0,966476.0,0.1794871836900711,68.0
2380134.0,4371382.0,3755153.0,5350959.0,465158.0,866324.0,673120.0,967195.0,0.1428571492433548,67.0
2377823.0,4368160.0,3750960.0,5342575.0,465570.0,864352.0,672625.0,964207.0,0.27272728085517883,67.0
2378026.0,4369188.0,3752530.0,5347130.0,465076.0,865620.0,673581.0,966300.0,0.1794871836900711,66.0
2376409.0,4365021.0,3749008.0,5338716.0,464489.0,864117.0,672470.0,962655.0,0.2222222238779068,66.0
2379933.0,4368293.0,3753074.0,5347919.0,466585.0,865527.0,673141.0,965996.0,0.27272728085517883,65.0
2377030.0,4365606.0,3749967.0,5339489.0,464910.0,863728.0,672673.0,962546.0,0.27272728085517883,65.0
2381676.0,4371142.0,3755814.0,5353074.0,466259.0,866720.0,673587.0,966494.0,0.1794871836900711,64.0
2379796.0,4369409.0,3754227.0,5346823.0,465748.0,865307.0,673743.0,966058.0,0.1794871836900711,64.0
2382592.0,4377489.0,3762604.0,5361872.0,465866.0,867761.0,675903.0,970642.0,0.1794871836900711,63.0
2383284.0,4376442.0,3761831.0,5359905.0,467140.0,868187.0,675873.0,970123.0,0.1794871836900711,63.0
2388096.0,4384638.0,3770557.0,5377282.0,468517.0,871393.0,678544.0,975777.0,0.1794871836900711,62.0
2386839.0,4381243.0,3764951.0,5367135.0,468993.0,871345.0,677459.0,973509.0,0.1794871836900711,61.0
2390150.0,4387420.0,3773639.0,5381789.0,469940.0,873406.0,680408.0,978118.0,0.1794871836900711,61.0
2385316.0,4380285.0,3764665.0,5366389.0,468337.0,871360.0,679519.0,975310.0,0.1794871836900711,61.0
2386872.0,4383287.0,3769280.0,5374115.0,469589.0,872867.0,680219.0,976991.0,0.1794871836900711,61.0
2385303.0,4378857.0,3762903.0,5363810.0,469983.0,872861.0,679386.0,976541.0,0.1794871836900711,61.0
2388547.0,4383075.0,3767892.0,5373319.0,470996.0,874167.0,681972.0,979549.0,0.1794871836900711,61.0
2386727.0,4380130.0,3764855.0,5369105.0,470178.0,873979.0,682258.0,979854.0,0.1794871836900711,61.0
2389735.0,4388481.0,3772823.0,5383025.0,471854.0,876592.0,683482.0,984999.0,0.1794871836900711,61.0
2391306.0,4385943.0,3771634.0,5380244.0,471732.0,876166.0,684197.0,983989.0,0.1794871836900711,61.0
2392213.0,4392399.0,3777947.0,5390718.0,472240.0,878021.0,685577.0,986662.0,0.1794871836900711,61.0
2392057.0,4391243.0,3776799.0,5388532.0,472808.0,878387.0,685083.0,987941.0,0.1428571492433548,61.0
2394165.0,4392766.0,3778910.0,5391766.0,473538.0,878754.0,686986.0,988028.0,0.1794871836900711,61.0
2392519.0,4391496.0,3776658.0,5387404.0,472646.0,877597.0,684891.0,986632.0,0.1794871836900711,61.0
2391296.0,4386832.0,3772053.0,5378057.0,473302.0,876495.0,683961.0,983221.0,0.27272728085517883,61.0
2387229.0,4382418.0,3767353.0,5371845.0,471501.0,876548.0,683246.0,982642.0,0.1794871836900711,62.0
2387229.0,4382418.0,3767353.0,5371845.0,471501.0,876548.0,683246.0,982642.0,0.1794871836900711,62.0
2384135.0,4374731.0,3759674.0,5359399.0,470197.0,872598.0,679947.0,977491.0,0.1794871836900711,62.0
2381317.0,4368939.0,3753733.0,5348632.0,469429.0,871649.0,679134.0,975479.0,0.1794871836900711,62.0
2381027.0,4370467.0,3754818.0,5352195.0,469028.0,872368.0,679629.0,977487.0,0.1428571492433548,62.0
2376649.0,4361310.0,3744697.0,5332369.0,468210.0,870254.0,677621.0,972525.0,0.1794871836900711,62.0
2377851.0,4365636.0,3749530.0,5342164.0,466975.0,869819.0,678637.0,975499.0,0.1428571492433548,62.0
2373093.0,4356686.0,3741531.0,5326204.0,467844.0,869195.0,677392.0,971029.0,0.1794871836900711,62.0
2377578.0,4365191.0,3750665.0,5343883.0,467524.0,871105.0,678876.0,974601.0,0.1428571492433548,61.0
2374988.0,4359604.0,3744345.0,5331661.0,466766.0,868272.0,676686.0,970904.0,0.1794871836900711,61.0
2380029.0,4369472.0,3754952.0,5351321.0,469180.0,870022.0,679800.0,977379.0,0.1794871836900711,61.0
2378504.0,4364986.0,3751263.0,5344542.0,468297.0,868764.0,678045.0,973619.0,0.1794871836900711,61.0
2381162.0,4371121.0,3757017.0,5356050.0,466820.0,870105.0,678963.0,976059.0,0.1428571492433548,62.0
2381859.0,4371266.0,3757473.0,5354226.0,467920.0,870606.0,678870.0,975826.0,0.1428571492433548,62.0
2380016.0,4370008.0,3755976.0,5352357.0,469169.0,871068.0,679001.0,974863.0,0.1794871836900711,62.0
2383879.0,4376688.0,3762002.0,5363804.0,469803.0,872186.0,680733.0,978540.0,0.1794871836900711,62.0
2380874.0,4371296.0,3756564.0,5352174.0,468343.0,870398.0,678200.0,975818.0,0.1428571492433548,62.0
2383989.0,4376887.0,3762563.0,5364733.0,468641.0,873118.0,681657.0,979818.0,0.1428571492433548,62.0
2381537.0,4369201.0,3754058.0,5349539.0,469635.0,871338.0,679185.0,977005.0,0.1794871836900711,63.0
2383145.0,4374162.0,3760195.0,5361072.0,469674.0,872755.0,680544.0,978776.0,0.1794871836900711,63.0
2378919.0,4366664.0,3755271.0,5344967.0,468399.0,870818.0,678570.0,974231.0,0.1794871836900711,63.0
2383140.0,4373599.0,3759644.0,5361485.0,469211.0,870973.0,680498.0,979896.0,0.1794871836900711,63.0
2379382.0,4367771.0,3750346.0,5343976.0,468773.0,870983.0,679483.0,975485.0,0.1794871836900711,63.0
2363302.0,4337133.0,3719789.0,5284023.0,463338.0,860958.0,669210.0,957685.0,0.1794871836900711,62.0
2363019.0,4335029.0,3718155.0,5280991.0,463075.0,859830.0,667168.0,956827.0,0.1428571492433548,62.0
2368225.0,4343045.0,3726940.0,5298631.0,463793.0,861546.0,671727.0,962637.0,0.1794871836900711,62.0
2366602.0,4339869.0,3722655.0,5289702.0,463439.0,861457.0,669653.0,959582.0,0.1428571492433548,62.0
2370062.0,4347436.0,3730951.0,5303805.0,465236.0,863936.0,672136.0,963572.0,0.1794871836900711,62.0
2367970.0,4342625.0,3726634.0,5294931.0,464147.0,862268.0,671009.0,960697.0,0.1794871836900711,62.0
2370030.0,4345470.0,3729423.0,5301630.0,465704.0,863457.0,672583.0,963143.0,0.1794871836900711,62.0
2366905.0,4341163.0,3724988.0,5293857.0,463675.0,861694.0,671016.0,960700.0,0.1794871836900711,62.0
2366944.0,4342532.0,3725867.0,5296135.0,464703.0,862902.0,671552.0,961186.0,0.1794871836900711,62.0
2367380.0,4342186.0,3725075.0,5295373.0,465022.0,862633.0,671030.0,961317.0,0.1794871836900711,63.0
2367770.0,4342384.0,3725507.0,5295087.0,464121.0,861468.0,670275.0,960912.0,0.1794871836900711,63.0
2367351.0,4343184.0,3727289.0,5298773.0,463885.0,862205.0,670979.0,961667.0,0.1794871836900711,63.0
2365064.0,4338885.0,3722739.0,5290595.0,462660.0,860748.0,670488.0,958571.0,0.1794871836900711,63.0
2368734.0,4344437.0,3728355.0,5301644.0,462760.0,862133.0,672181.0,962903.0,0.1428571492433548,63.0
2364849.0,4337221.0,3720090.0,5285917.0,463287.0,860112.0,666886.0,957282.0,0.1428571492433548,63.0
2367540.0,4343665.0,3727573.0,5298387.0,463620.0,862053.0,670654.0,961443.0,0.1428571492433548,63.0
2362947.0,4334050.0,3717106.0,5280143.0,461086.0,859323.0,667752.0,954812.0,0.1428571492433548,63.0
2365216.0,4340109.0,3723698.0,5292982.0,462826.0,860078.0,669266.0,958606.0,0.1794871836900711,64.0
2362718.0,4335293.0,3717267.0,5282000.0,461674.0,857530.0,667752.0,955721.0,0.1794871836900711,64.0
2365825.0,4340271.0,3725098.0,5293367.0,462324.0,859971.0,669212.0,957718.0,0.1794871836900711,64.0
2365332.0,4338072.0,3722496.0,5290272.0,462329.0,858479.0,667904.0,957345.0,0.1794871836900711,64.0
2365332.0,4338072.0,3722496.0,5290272.0,462329.0,858479.0,667904.0,957345.0,0.1794871836900711,64.0
2364997.0,4338418.0,3721602.0,5288632.0,463223.0,859786.0,668258.0,956112.0,0.1794871836900711,64.0
2366712.0,4340857.0,3724526.0,5292933.0,462720.0,861102.0,668843.0,958333.0,0.1428571492433548,64.0
2369127.0,4345443.0,3731907.0,5302889.0,464375.0,862392.0,671262.0,961768.0,0.1794871836900711,64.0
2365387.0,4339571.0,3724330.0,5292038.0,462651.0,861007.0,670259.0,959305.0,0.1794871836900711,64.0
2369415.0,4346141.0,3729948.0,5303030.0,465281.0,862321.0,672127.0,963171.0,0.1794871836900711,64.0
2365677.0,4339951.0,3722579.0,5289974.0,462048.0,861406.0,670366.0,959496.0,0.1428571492433548,64.0
2368781.0,4344951.0,3728804.0,5301999.0,464403.0,863337.0,672393.0,963459.0,0.1794871836900711,64.0
2365276.0,4338029.0,3724053.0,5290313.0,463844.0,861400.0,669730.0,959036.0,0.1794871836900711,64.0
2368999.0,4344332.0,3729917.0,5301520.0,463591.0,863808.0,672216.0,962738.0,0.1428571492433548,64.0
2364877.0,4338869.0,3722382.0,5288727.0,464457.0,861606.0,670655.0,960344.0,0.1794871836900711,64.0
2369311.0,4345654.0,3731184.0,5304843.0,463429.0,863436.0,672997.0,965143.0,0.1428571492433548,64.0
2363961.0,4337198.0,3720765.0,5286640.0,463168.0,861467.0,670627.0,957293.0,0.1794871836900711,63.0
2368604.0,4342674.0,3727811.0,5298863.0,464054.0,863384.0,671842.0,960166.0,0.1794871836900711,63.0
2363949.0,4334844.0,3718437.0,5283589.0,462109.0,859906.0,668805.0,955876.0,0.1794871836900711,63.0
2366662.0,4341909.0,3726194.0,5295208.0,463086.0,861222.0,669699.0,959915.0,0.1428571492433548,63.0
2368317.0,4334707.0,3718413.0,5282821.0,464390.0,859291.0,667858.0,955931.0,0.1794871836900711,63.0
2366639.0,4342018.0,3726291.0,5297454.0,464023.0,861282.0,670807.0,960279.0,0.1794871836900711,63.0
2366639.0,4342018.0,3726291.0,5297454.0,464023.0,861282.0,670807.0,960279.0,0.1794871836900711,63.0
2246880.0,4121588.0,3536883.0,5028377.0,439501.0,818638.0,635451.0,910010.0,0.1428571492433548,63.0
2367164.0,4341483.0,3725709.0,5297427.0,463609.0,860723.0,671297.0,960519.0,0.1794871836900711,63.0
2367253.0,4343537.0,3726845.0,5298487.0,464726.0,862722.0,670646.0,959992.0,0.1794871836900711,63.0
2366947.0,4342521.0,3726316.0,5298576.0,464029.0,862688.0,670416.0,959758.0,0.1794871836900711,62.0
2367405.0,4342481.0,3725162.0,5295144.0,464120.0,862394.0,670967.0,960251.0,0.1794871836900711,62.0
2366314.0,4341073.0,3725982.0,5296491.0,465092.0,862891.0,671320.0,961518.0,0.1794871836900711,62.0
2365544.0,4338845.0,3722397.0,5291720.0,464732.0,861859.0,670062.0,959282.0,0.1794871836900711,62.0
2365793.0,4339624.0,3724059.0,5293689.0,463582.0,862235.0,670690.0,960851.0,0.1794871836900711,62.0
2364207.0,4336678.0,3721718.0,5288215.0,464740.0,862054.0,670719.0,959805.0,0.1794871836900711,62.0
2365417.0,4339163.0,3723110.0,5292611.0,464458.0,862104.0,671076.0,961467.0,0.1794871836900711,62.0
2361261.0,4332964.0,3718084.0,5282706.0,463141.0,859776.0,669081.0,958221.0,0.1794871836900711,62.0
2364683.0,4339651.0,3723827.0,5294363.0,464435.0,863603.0,671501.0,962636.0,0.1794871836900711,62.0
2362309.0,4332749.0,3715845.0,5280502.0,463380.0,860934.0,668840.0,958090.0,0.1794871836900711,62.0
2363933.0,4338285.0,3722328.0,5294307.0,463523.0,863074.0,671673.0,962340.0,0.1794871836900711,62.0
2360604.0,4330654.0,3714826.0,5278744.0,463610.0,861053.0,669271.0,957956.0,0.1794871836900711,62.0
2364221.0,4338587.0,3723286.0,5294124.0,464103.0,862989.0,672219.0,963174.0,0.1794871836900711,62.0
2361624.0,4334223.0,3716838.0,5281932.0,463661.0,861772.0,670264.0,958744.0,0.1794871836900711,62.0
2367819.0,4342504.0,3726217.0,5301239.0,465563.0,863872.0,672118.0,964443.0,0.1794871836900711,61.0
2365237.0,4338482.0,3722251.0,5294412.0,464873.0,864418.0,672828.0,963288.0,0.1794871836900711,61.0
2367760.0,4344097.0,3730181.0,5302843.0,465815.0,864594.0,674004.0,964459.0,0.1794871836900711,61.0
