s680,s720,s760,s800,l680,l720,l760,l800,Normalized_O2_HHb,Heart_Rate
1842372.0,3433461.0,3035776.0,4354345.0,136292.0,278251.0,222780.0,317085.0,0.4390243887901306,75.0
1835872.0,3420182.0,3020543.0,4330833.0,134810.0,276001.0,221433.0,313725.0,0.4390243887901306,75.0
1839622.0,3428461.0,3030196.0,4349293.0,136665.0,278728.0,223080.0,316905.0,0.4390243887901306,75.0
1836259.0,3421972.0,3023095.0,4333888.0,135711.0,277520.0,222095.0,314815.0,0.4390243887901306,75.0
1836027.0,3419434.0,3019762.0,4329108.0,136325.0,277840.0,221934.0,314208.0,0.4685494303703308,75.0
1836027.0,3419434.0,3019762.0,4329108.0,136325.0,277840.0,221934.0,314208.0,0.4685494303703308,75.0
1836971.0,3420894.0,3022338.0,4332646.0,135937.0,278043.0,222689.0,315098.0,0.4685494303703308,75.0
1830167.0,3410449.0,3010144.0,4312325.0,134556.0,275786.0,221509.0,311171.0,0.501354992389679,75.0
1740933.0,3242003.0,2861273.0,4100410.0,129347.0,262913.0,209913.0,297290.0,0.4685494303703308,75.0
1826842.0,3402957.0,3001790.0,4297710.0,134758.0,274327.0,218360.0,309755.0,0.4390243887901306,75.0
1827845.0,3405809.0,3004718.0,4303560.0,135053.0,275368.0,219442.0,310522.0,0.4685494303703308,75.0
1830918.0,3412169.0,3012663.0,4316536.0,136104.0,275957.0,220678.0,312332.0,0.4685494303703308,75.0
1831098.0,3408548.0,3010128.0,4309628.0,135089.0,275945.0,221122.0,311576.0,0.4685494303703308,75.0
1831572.0,3411583.0,3013012.0,4316974.0,135305.0,276541.0,221004.0,313549.0,0.4390243887901306,75.0
1827840.0,3404994.0,3004068.0,4299558.0,134468.0,273878.0,219393.0,310518.0,0.4685494303703308,75.0
1831541.0,3410734.0,3009304.0,4310333.0,135552.0,275705.0,221068.0,312701.0,0.4685494303703308,75.0
1827980.0,3405246.0,3004218.0,4299375.0,135405.0,274838.0,220221.0,311523.0,0.4685494303703308,75.0
1826402.0,3404746.0,3003829.0,4295087.0,133843.0,275087.0,220758.0,310301.0,0.4685494303703308,75.0
1831860.0,3413320.0,3013078.0,4317240.0,135305.0,276804.0,221731.0,312721.0,0.4685494303703308,75.0
1829963.0,3409317.0,3007955.0,4305569.0,134887.0,276059.0,221574.0,311744.0,0.4685494303703308,75.0
1829791.0,3407570.0,3006019.0,4303388.0,134540.0,275609.0,220923.0,311419.0,0.4685494303703308,75.0
1827824.0,3405973.0,3005871.0,4301184.0,134380.0,273826.0,219673.0,311997.0,0.4390243887901306,75.0
1822333.0,3395331.0,2993784.0,4280951.0,134137.0,272862.0,218662.0,307821.0,0.501354992389679,75.0
1824775.0,3400537.0,3000771.0,4293232.0,134324.0,273195.0,219261.0,310176.0,0.4685494303703308,75.0
1826176.0,3401507.0,3000351.0,4294319.0,133461.0,274652.0,219200.0,309841.0,0.4390243887901306,75.0
1826176.0,3401507.0,3000351.0,4294319.0,133461.0,274652.0,219200.0,309841.0,0.4390243887901306,75.0
1825492.0,3401186.0,3000179.0,4293212.0,133700.0,274045.0,219634.0,311394.0,0.4390243887901306,75.0
1826398.0,3404455.0,3004603.0,4298883.0,133617.0,275102.0,221421.0,311161.0,0.4685494303703308,75.0
1822841.0,3397216.0,2996191.0,4285136.0,133671.0,274142.0,218968.0,309424.0,0.4390243887901306,75.0
1826461.0,3403617.0,3002561.0,4297208.0,133961.0,274692.0,219799.0,310023.0,0.4685494303703308,75.0
1824746.0,3400426.0,2999605.0,4291034.0,134046.0,274299.0,218386.0,309844.0,0.4390243887901306,75.0
1826591.0,3403456.0,3003977.0,4297261.0,134407.0,273912.0,219334.0,310565.0,0.4390243887901306,75.0
1831084.0,3411897.0,3013263.0,4316438.0,134472.0,275295.0,220754.0,312699.0,0.4390243887901306,75.0
1826769.0,3403200.0,3003127.0,4299117.0,133601.0,272721.0,219363.0,311341.0,0.4390243887901306,75.0
1832459.0,3412569.0,3015202.0,4318343.0,134106.0,276205.0,221444.0,313292.0,0.4390243887901306,75.0
1827574.0,3405181.0,3007387.0,4304217.0,134211.0,275816.0,221169.0,312294.0,0.4390243887901306,75.0
1827084.0,3404068.0,3005113.0,4301996.0,134185.0,273562.0,220742.0,312385.0,0.4685494303703308,75.0
1829804.0,3407592.0,3010312.0,4311489.0,133785.0,275284.0,220982.0,312819.0,0.4390243887901306,75.0
1827281.0,3404376.0,3005577.0,4302136.0,134452.0,274261.0,220477.0,312838.0,0.4390243887901306,75.0
1831054.0,3411700.0,3014347.0,4320449.0,135175.0,275147.0,221794.0,314834.0,0.4390243887901306,75.0
1826495.0,3404079.0,3004460.0,4302703.0,134769.0,274680.0,220810.0,312751.0,0.4685494303703308,75.0
1824736.0,3401721.0,3003073.0,4296832.0,134033.0,274219.0,219554.0,312736.0,0.4390243887901306,75.0
1823317.0,3399073.0,3000831.0,4294894.0,133474.0,273251.0,219351.0,312299.0,0.4390243887901306,75.0
1818617.0,3389776.0,2988336.0,4274523.0,133762.0,271681.0,216935.0,308332.0,0.4390243887901306,75.0
1823724.0,3399810.0,3000942.0,4295423.0,133976.0,273106.0,219003.0,310980.0,0.4390243887901306,74.0
1821454.0,3395593.0,2996769.0,4287894.0,132947.0,272779.0,219010.0,311197.0,0.4390243887901306,74.0
1822608.0,3395901.0,2996838.0,4288326.0,132974.0,272998.0,218767.0,311041.0,0.4390243887901306,73.0
1822792.0,3397922.0,2998842.0,4292025.0,133227.0,273850.0,218997.0,311153.0,0.4390243887901306,73.0
1818189.0,3388179.0,2987790.0,4271551.0,133435.0,270674.0,216329.0,308178.0,0.4390243887901306,73.0
1819136.0,3391704.0,2992901.0,4280554.0,132102.0,271487.0,217858.0,308826.0,0.4390243887901306,73.0
1814547.0,3382185.0,2981452.0,4261512.0,131719.0,269571.0,216571.0,306323.0,0.4390243887901306,72.0
1820961.0,3393385.0,2994239.0,4281936.0,133234.0,271868.0,218730.0,310429.0,0.4390243887901306,72.0
1820627.0,3392214.0,2993071.0,4283261.0,133215.0,271229.0,218320.0,309725.0,0.4390243887901306,71.0
1820016.0,3391952.0,2992861.0,4278211.0,132061.0,271163.0,218555.0,309465.0,0.4390243887901306,71.0
1820658.0,3393342.0,2994375.0,4284823.0,132267.0,272097.0,218761.0,310147.0,0.4390243887901306,71.0
1815018.0,3383325.0,2982872.0,4263411.0,131589.0,270085.0,217294.0,306553.0,0.4390243887901306,71.0
1818429.0,3390061.0,2990676.0,4280923.0,132184.0,271298.0,217893.0,309794.0,0.4390243887901306,71.0
1814895.0,3384385.0,2985703.0,4270090.0,131422.0,270114.0,217829.0,308227.0,0.4390243887901306,71.0
1818692.0,3390770.0,2992870.0,4282123.0,132697.0,271408.0,218442.0,310701.0,0.4390243887901306,71.0
1816716.0,3387946.0,2989576.0,4278189.0,132935.0,270848.0,217709.0,309981.0,0.4390243887901306,71.0
1813971.0,3382591.0,2983140.0,4266761.0,130475.0,268900.0,216955.0,307912.0,0.4390243887901306,70.0
1818001.0,3388127.0,2990987.0,4281269.0,132371.0,271064.0,217502.0,310500.0,0.4390243887901306,70.0
1812764.0,3379997.0,2980621.0,4263007.0,131417.0,268916.0,216034.0,307911.0,0.4390243887901306,70.0
1815904.0,3387149.0,2989961.0,4277799.0,131368.0,270765.0,216117.0,310207.0,0.3658536672592163,70.0
1812865.0,3381181.0,2983146.0,4269591.0,130889.0,268070.0,216178.0,308782.0,0.4390243887901306,69.0
1816016.0,3387133.0,2989284.0,4277921.0,131407.0,271030.0,217182.0,310131.0,0.41231125593185425,69.0
1814574.0,3384644.0,2988339.0,4277092.0,131199.0,268256.0,216221.0,309541.0,0.41231125593185425,69.0
1811532.0,3378567.0,2981455.0,4264557.0,131065.0,269406.0,216372.0,308844.0,0.41231125593185425,69.0
1812525.0,3384393.0,2987360.0,4275242.0,130447.0,269132.0,216986.0,309704.0,0.41231125593185425,69.0
1815573.0,3387645.0,2991970.0,4285487.0,131135.0,269309.0,216508.0,310323.0,0.41231125593185425,69.0
1812461.0,3381504.0,2985646.0,4272375.0,130733.0,267650.0,216112.0,308389.0,0.4390243887901306,69.0
1819981.0,3395982.0,3002085.0,4301085.0,132040.0,270007.0,218973.0,312521.0,0.4390243887901306,69.0
1815277.0,3386887.0,2990891.0,4283552.0,130313.0,267216.0,216851.0,310372.0,0.41231125593185425,69.0
1817163.0,3392292.0,2997619.0,4296496.0,130809.0,269887.0,218838.0,312131.0,0.4390243887901306,69.0
1817163.0,3392292.0,2997619.0,4296496.0,130809.0,269887.0,218838.0,312131.0,0.4390243887901306,69.0
1817194.0,3391877.0,2998807.0,4299807.0,130844.0,268711.0,217106.0,310420.0,0.4390243887901306,69.0
1822154.0,3402577.0,3010343.0,4321060.0,131786.0,270089.0,219109.0,313747.0,0.4390243887901306,69.0
1817446.0,3392449.0,2998963.0,4301900.0,130955.0,268862.0,217487.0,311767.0,0.41231125593185425,69.0
1819613.0,3397500.0,3006164.0,4316144.0,130988.0,269529.0,218387.0,313873.0,0.41231125593185425,69.0
1813423.0,3386546.0,2993262.0,4293458.0,129701.0,266584.0,215730.0,310805.0,0.3880265951156616,70.0
1813477.0,3385740.0,2993102.0,4293266.0,129101.0,266774.0,215496.0,310901.0,0.3455284535884857,70.0
1812697.0,3384433.0,2991749.0,4292406.0,129252.0,266665.0,216282.0,311299.0,0.3658536672592163,70.0
1812260.0,3383472.0,2990387.0,4289895.0,129822.0,267360.0,215645.0,309604.0,0.41231125593185425,70.0
1817577.0,3393914.0,3003068.0,4311798.0,129479.0,267940.0,217876.0,312905.0,0.3880265951156616,70.0
1812352.0,3385128.0,2992993.0,4295297.0,130844.0,267440.0,216109.0,311609.0,0.41231125593185425,70.0
1814592.0,3389436.0,2999116.0,4304718.0,129744.0,267522.0,215939.0,311344.0,0.3658536672592163,70.0
1814294.0,3388449.0,2997745.0,4304668.0,129174.0,267069.0,215958.0,310387.0,0.3658536672592163,70.0
1811058.0,3383408.0,2992053.0,4292599.0,129069.0,266886.0,215810.0,309833.0,0.3658536672592163,70.0
1810171.0,3382611.0,2991692.0,4292967.0,128330.0,266309.0,215483.0,310137.0,0.3658536672592163,70.0
1809303.0,3379998.0,2989772.0,4288574.0,128446.0,264972.0,215433.0,308889.0,0.41231125593185425,70.0
1809280.0,3377347.0,2984902.0,4277878.0,128302.0,264571.0,214182.0,307077.0,0.41231125593185425,70.0
1810401.0,3381123.0,2988865.0,4284430.0,129934.0,264880.0,213471.0,308241.0,0.3880265951156616,70.0
1810117.0,3380209.0,2987988.0,4283792.0,128805.0,265382.0,215164.0,308002.0,0.41231125593185425,70.0
1807828.0,3375698.0,2983669.0,4273699.0,128033.0,265109.0,214111.0,306902.0,0.3658536672592163,70.0
1807931.0,3376928.0,2985745.0,4279661.0,128669.0,265504.0,214309.0,307377.0,0.41231125593185425,70.0
1811197.0,3381544.0,2990368.0,4287573.0,130107.0,266585.0,216731.0,310974.0,0.41231125593185425,70.0
1808626.0,3377370.0,2985543.0,4282334.0,129024.0,265196.0,214938.0,307872.0,0.41231125593185425,72.0
1811453.0,3383791.0,2992140.0,4292955.0,129264.0,266120.0,215344.0,309406.0,0.41231125593185425,72.0
1809465.0,3379385.0,2987253.0,4285569.0,129083.0,265667.0,215157.0,309175.0,0.41231125593185425,73.0
1809288.0,3378951.0,2986346.0,4281416.0,129161.0,266089.0,214345.0,308111.0,0.3880265951156616,74.0
1809288.0,3378951.0,2986346.0,4281416.0,129161.0,266089.0,214345.0,308111.0,0.3880265951156616,74.0
1809497.0,3379388.0,2987173.0,4284487.0,128630.0,265922.0,215475.0,308790.0,0.41231125593185425,74.0
1815206.0,3389184.0,2998526.0,4304406.0,130169.0,267374.0,216198.0,310590.0,0.41231125593185425,74.0
1812905.0,3386015.0,2994015.0,4294167.0,129212.0,266880.0,216023.0,308330.0,0.4390243887901306,74.0
1812890.0,3386632.0,2996077.0,4297002.0,128774.0,266692.0,214856.0,310334.0,0.3455284535884857,74.0
1815972.0,3387572.0,2996499.0,4300176.0,131201.0,267075.0,216086.0,309960.0,0.4390243887901306,75.0
1810281.0,3380393.0,2989310.0,4286473.0,128947.0,265166.0,215277.0,307628.0,0.4390243887901306,75.0
1814472.0,3387322.0,2997582.0,4300543.0,130483.0,266727.0,215804.0,310225.0,0.41231125593185425,76.0
1813567.0,3387917.0,2997271.0,4298971.0,129496.0,267428.0,216833.0,309535.0,0.4390243887901306,76.0
1810277.0,3381027.0,2989492.0,4286017.0,129367.0,265857.0,214530.0,307356.0,0.41231125593185425,76.0
1815609.0,3389070.0,2998592.0,4302074.0,130038.0,267302.0,214696.0,309612.0,0.3880265951156616,76.0
1813839.0,3388816.0,2996378.0,4297036.0,130076.0,266564.0,215344.0,309252.0,0.41231125593185425,76.0
1814777.0,3388781.0,2996160.0,4293755.0,129230.0,266859.0,215350.0,307899.0,0.41231125593185425,76.0
1818219.0,3395651.0,3002538.0,4306257.0,129292.0,267686.0,216050.0,309869.0,0.3880265951156616,74.0
1819682.0,3398333.0,3008043.0,4314878.0,131024.0,268292.0,217612.0,310895.0,0.4390243887901306,74.0
1823165.0,3401628.0,3009788.0,4318337.0,131122.0,268156.0,218342.0,312780.0,0.4390243887901306,74.0
1825731.0,3409251.0,3019392.0,4335011.0,131961.0,270584.0,218579.0,314304.0,0.41231125593185425,74.0
1825181.0,3407574.0,3016535.0,4332018.0,131613.0,270282.0,218943.0,312728.0,0.4390243887901306,74.0
1824651.0,3408300.0,3018522.0,4332661.0,131889.0,269325.0,218716.0,312640.0,0.4390243887901306,74.0
1811720.0,3382346.0,2991722.0,4289508.0,129885.0,265187.0,213079.0,306638.0,0.41231125593185425,74.0
1811584.0,3381754.0,2991543.0,4292396.0,129516.0,265723.0,214865.0,308079.0,0.41231125593185425,74.0
1819093.0,3395623.0,3006466.0,4314039.0,130933.0,267183.0,216500.0,311265.0,0.41231125593185425,74.0
1818951.0,3397532.0,3006547.0,4313435.0,130933.0,267944.0,216246.0,309932.0,0.4390243887901306,74.0
1821829.0,3398411.0,3008488.0,4317687.0,131584.0,268417.0,216545.0,310280.0,0.4390243887901306,75.0
1823254.0,3401621.0,3012413.0,4324067.0,131680.0,267664.0,217274.0,311222.0,0.4390243887901306,75.0
1823254.0,3401621.0,3012413.0,4324067.0,131680.0,267664.0,217274.0,311222.0,0.4390243887901306,75.0
1824629.0,3405219.0,3015032.0,4327136.0,132405.0,269856.0,217718.0,310173.0,0.4390243887901306,75.0
1831646.0,3417987.0,3027717.0,4348581.0,133989.0,270761.0,219562.0,313778.0,0.4390243887901306,75.0
1831141.0,3417869.0,3027058.0,4346829.0,132754.0,270836.0,219226.0,314267.0,0.4390243887901306,75.0
1835366.0,3422592.0,3032771.0,4356031.0,134389.0,272699.0,221191.0,316234.0,0.4390243887901306,75.0
1831083.0,3415723.0,3024524.0,4342104.0,134393.0,272035.0,219712.0,313357.0,0.4390243887901306,75.0
1831474.0,3414688.0,3025151.0,4342659.0,133657.0,271131.0,219253.0,313678.0,0.4390243887901306,75.0
1825968.0,3407794.0,3016767.0,4327097.0,132453.0,270889.0,217504.0,310706.0,0.4390243887901306,75.0
1826339.0,3405610.0,3013056.0,4321086.0,132762.0,270356.0,218000.0,310402.0,0.4390243887901306,75.0
1830008.0,3414149.0,3023324.0,4337871.0,134197.0,273609.0,220965.0,312944.0,0.4685494303703308,75.0
1828620.0,3411328.0,3019474.0,4330156.0,134195.0,272821.0,219022.0,313468.0,0.4390243887901306,74.0
1829562.0,3411146.0,3019803.0,4329273.0,134161.0,272971.0,219997.0,311438.0,0.4685494303703308,74.0
1830774.0,3412677.0,3020923.0,4331915.0,135122.0,272609.0,220212.0,312503.0,0.4685494303703308,74.0
1826028.0,3405543.0,3012488.0,4319287.0,134834.0,271743.0,218834.0,311313.0,0.4685494303703308,73.0
1828565.0,3408784.0,3016027.0,4321823.0,134242.0,272748.0,219671.0,310442.0,0.4685494303703308,73.0
1829632.0,3410944.0,3019268.0,4326850.0,133704.0,272514.0,220392.0,311324.0,0.4685494303703308,73.0
1831121.0,3412033.0,3018235.0,4323261.0,135217.0,273213.0,219834.0,311207.0,0.4685494303703308,73.0
1833356.0,3417964.0,3025531.0,4335898.0,135995.0,274789.0,220809.0,313279.0,0.4685494303703308,73.0
1835093.0,3419109.0,3027101.0,4336634.0,135533.0,275078.0,220120.0,312999.0,0.4390243887901306,73.0
1834000.0,3419468.0,3025178.0,4335652.0,135592.0,274912.0,221768.0,313528.0,0.4685494303703308,73.0
1838082.0,3425066.0,3032398.0,4348011.0,135865.0,276124.0,222522.0,313956.0,0.501354992389679,73.0
1838863.0,3426332.0,3033367.0,4347520.0,136222.0,275005.0,221039.0,314537.0,0.4685494303703308,73.0
1840993.0,3432325.0,3037906.0,4355440.0,136629.0,275292.0,221330.0,314749.0,0.4685494303703308,74.0
1843140.0,3436204.0,3042956.0,4363685.0,136266.0,277297.0,222699.0,315752.0,0.4685494303703308,74.0
1841685.0,3432565.0,3039480.0,4354628.0,136852.0,277161.0,222611.0,315217.0,0.4685494303703308,74.0
1842155.0,3432518.0,3038674.0,4354710.0,136440.0,276834.0,222922.0,315257.0,0.4685494303703308,74.0
1842155.0,3432518.0,3038674.0,4354710.0,136440.0,276834.0,222922.0,315257.0,0.4685494303703308,74.0
1836781.0,3422570.0,3028985.0,4339780.0,136359.0,275530.0,222044.0,313587.0,0.501354992389679,74.0
1840657.0,3429293.0,3035722.0,4353076.0,137055.0,277392.0,222946.0,316992.0,0.4685494303703308,74.0
1837618.0,3425503.0,3032084.0,4345337.0,136126.0,276174.0,222927.0,316611.0,0.4685494303703308,74.0
1840529.0,3429662.0,3035216.0,4349292.0,136485.0,277198.0,222897.0,315742.0,0.4685494303703308,75.0
1841148.0,3430222.0,3037371.0,4352447.0,137033.0,277010.0,223241.0,315927.0,0.4685494303703308,75.0
1837834.0,3425423.0,3029820.0,4341205.0,136683.0,275517.0,220572.0,313487.0,0.4685494303703308,75.0
1841945.0,3432737.0,3038736.0,4352536.0,136753.0,276028.0,222130.0,314881.0,0.4685494303703308,75.0
1844005.0,3435640.0,3041858.0,4359053.0,137300.0,278795.0,223346.0,317127.0,0.4685494303703308,75.0
1840036.0,3430182.0,3036372.0,4349120.0,137239.0,277951.0,222243.0,315010.0,0.4685494303703308,75.0
1843266.0,3434699.0,3043312.0,4362799.0,138352.0,279038.0,225290.0,318270.0,0.501354992389679,75.0
1839885.0,3428027.0,3033988.0,4346880.0,137198.0,277364.0,223155.0,316298.0,0.4685494303703308,75.0
1841151.0,3429826.0,3036693.0,4349885.0,137348.0,278062.0,223235.0,315341.0,0.501354992389679,75.0
1839424.0,3429162.0,3034809.0,4346279.0,136783.0,277646.0,223839.0,314805.0,0.501354992389679,75.0
1842805.0,3432358.0,3037675.0,4351278.0,136880.0,276896.0,223098.0,315619.0,0.4685494303703308,75.0
1847020.0,3442128.0,3047729.0,4367272.0,137363.0,279444.0,225201.0,317885.0,0.4685494303703308,74.0
1842724.0,3436091.0,3041297.0,4355375.0,137168.0,277924.0,224530.0,316791.0,0.501354992389679,74.0
1844619.0,3438979.0,3044547.0,4362598.0,137832.0,278977.0,223703.0,316619.0,0.4685494303703308,74.0
1841314.0,3430632.0,3035925.0,4348024.0,137845.0,277569.0,223923.0,315995.0,0.501354992389679,74.0
1836195.0,3423341.0,3028424.0,4333518.0,135764.0,275974.0,222176.0,313749.0,0.4685494303703308,74.0
1840112.0,3429878.0,3036587.0,4348653.0,137109.0,277597.0,223196.0,315597.0,0.4685494303703308,73.0
1839456.0,3429324.0,3035456.0,4347634.0,136829.0,276991.0,224387.0,315368.0,0.5380200743675232,73.0
1841174.0,3431021.0,3037648.0,4352668.0,137268.0,278059.0,223655.0,316730.0,0.4685494303703308,73.0
1840890.0,3431516.0,3039318.0,4354592.0,136623.0,277155.0,223030.0,316442.0,0.4685494303703308,73.0
1839209.0,3425813.0,3032703.0,4342335.0,136388.0,277667.0,222719.0,314735.0,0.4685494303703308,72.0
1836697.0,3425041.0,3031713.0,4342062.0,137159.0,276447.0,222723.0,314240.0,0.501354992389679,72.0
1839381.0,3427194.0,3033722.0,4346784.0,136633.0,275973.0,221844.0,314260.0,0.4685494303703308,72.0
1842205.0,3431944.0,3038752.0,4351418.0,137018.0,276501.0,222898.0,314916.0,0.501354992389679,72.0
1846634.0,3442743.0,3048550.0,4367748.0,137462.0,277890.0,224295.0,317554.0,0.4685494303703308,72.0
1846262.0,3441486.0,3046994.0,4363288.0,136843.0,277189.0,223607.0,315498.0,0.501354992389679,72.0
1845084.0,3440214.0,3045475.0,4359219.0,136672.0,277603.0,223126.0,313854.0,0.501354992389679,72.0
1844502.0,3439787.0,3043138.0,4357405.0,136841.0,277288.0,222183.0,313865.0,0.501354992389679,72.0
1845424.0,3438718.0,3042836.0,4354862.0,136828.0,276531.0,222244.0,313259.0,0.501354992389679,73.0
1850586.0,3445743.0,3052705.0,4371534.0,137101.0,277761.0,223663.0,316348.0,0.4685494303703308,73.0
1852967.0,3452613.0,3058800.0,4383859.0,138458.0,279039.0,224562.0,317907.0,0.501354992389679,73.0
1851895.0,3450188.0,3055444.0,4377270.0,138167.0,279353.0,224104.0,316000.0,0.501354992389679,73.0
1852377.0,3453274.0,3059217.0,4383453.0,137739.0,279176.0,224923.0,317902.0,0.4685494303703308,74.0
1848987.0,3445590.0,3051498.0,4371541.0,137075.0,278904.0,225215.0,316456.0,0.501354992389679,74.0
1849094.0,3445472.0,3051731.0,4369550.0,137190.0,278051.0,223986.0,315818.0,0.501354992389679,74.0
1853441.0,3452979.0,3059727.0,4387438.0,137049.0,278692.0,225152.0,319351.0,0.4685494303703308,74.0
1850538.0,3448379.0,3055740.0,4377834.0,138090.0,278485.0,225318.0,317194.0,0.5380200743675232,75.0
1851529.0,3449782.0,3056933.0,4381980.0,137894.0,280364.0,225201.0,319452.0,0.4685494303703308,75.0
1846707.0,3441582.0,3047406.0,4366160.0,138210.0,279767.0,225336.0,317388.0,0.501354992389679,75.0
1843033.0,3435086.0,3040447.0,4351619.0,136734.0,277070.0,223075.0,315558.0,0.4685494303703308,75.0
1846863.0,3441713.0,3047415.0,4366649.0,137729.0,278556.0,225138.0,317018.0,0.501354992389679,75.0
1845148.0,3439856.0,3044369.0,4359170.0,137862.0,278106.0,224414.0,318553.0,0.4685494303703308,75.0
1846145.0,3440249.0,3045673.0,4361195.0,137607.0,279379.0,224461.0,316619.0,0.501354992389679,75.0
1842335.0,3434991.0,3041307.0,4353062.0,136932.0,279221.0,224008.0,315831.0,0.4685494303703308,74.0
1836502.0,3422629.0,3027746.0,4328719.0,136477.0,276535.0,222245.0,312060.0,0.501354992389679,74.0
1837614.0,3423821.0,3028046.0,4332607.0,136739.0,276240.0,221851.0,313405.0,0.501354992389679,74.0
1839454.0,3427595.0,3032634.0,4339249.0,137189.0,277322.0,223954.0,315019.0,0.501354992389679,74.0
1823651.0,3392803.0,2990099.0,4256138.0,135953.0,274870.0,218838.0,303442.0,0.5792682766914368,74.0
1823651.0,3392803.0,2990099.0,4256138.0,135953.0,274870.0,218838.0,303442.0,0.5792682766914368,74.0
1824336.0,3394990.0,2994198.0,4262483.0,136872.0,275310.0,218722.0,304075.0,0.5792682766914368,74.0
1825346.0,3395949.0,2995152.0,4264198.0,136471.0,274900.0,218767.0,303411.0,0.6260162591934204,75.0
1824618.0,3397210.0,2995919.0,4269043.0,136260.0,275492.0,219463.0,304914.0,0.5792682766914368,75.0
1824866.0,3398354.0,2995993.0,4268173.0,136671.0,276273.0,218481.0,303884.0,0.5792682766914368,75.0
1829023.0,3404897.0,3005814.0,4284107.0,137992.0,276909.0,221248.0,306136.0,0.6260162591934204,75.0
1829199.0,3405481.0,3005404.0,4283540.0,138529.0,277189.0,221304.0,306952.0,0.6260162591934204,75.0
1829022.0,3403501.0,3001921.0,4278657.0,137578.0,277613.0,220703.0,306048.0,0.6260162591934204,75.0
1832995.0,3410506.0,3010890.0,4293647.0,138486.0,277667.0,222843.0,309016.0,0.6260162591934204,75.0
1830643.0,3406010.0,3005699.0,4282869.0,137814.0,276832.0,220203.0,306268.0,0.6260162591934204,75.0
1834319.0,3413318.0,3010443.0,4291845.0,138210.0,278136.0,220869.0,307593.0,0.5792682766914368,75.0
1844041.0,3429671.0,3028808.0,4321111.0,139881.0,280187.0,224212.0,311196.0,0.6260162591934204,75.0
1844518.0,3432723.0,3030855.0,4322564.0,139264.0,280324.0,223952.0,311668.0,0.5792682766914368,75.0
1845781.0,3434854.0,3031679.0,4322933.0,140072.0,281284.0,224187.0,311631.0,0.6260162591934204,75.0
1851894.0,3445598.0,3043234.0,4343268.0,139668.0,282936.0,225175.0,313264.0,0.5792682766914368,75.0
1850435.0,3440163.0,3038864.0,4334078.0,140067.0,280327.0,224001.0,312028.0,0.6260162591934204,75.0
1853282.0,3446822.0,3045057.0,4343459.0,139578.0,281500.0,225254.0,313057.0,0.5792682766914368,75.0
1855954.0,3450029.0,3050261.0,4354212.0,140693.0,282555.0,226356.0,315817.0,0.5792682766914368,75.0
1855791.0,3450192.0,3049358.0,4352277.0,141943.0,283229.0,225753.0,315527.0,0.6260162591934204,75.0
1858332.0,3455631.0,3056367.0,4366784.0,141258.0,284201.0,227120.0,317035.0,0.5792682766914368,75.0
1853231.0,3447270.0,3047610.0,4351272.0,141333.0,283176.0,226712.0,316599.0,0.6260162591934204,75.0
1854122.0,3448927.0,3050102.0,4354683.0,141317.0,283100.0,227686.0,317864.0,0.6260162591934204,75.0
1850291.0,3440174.0,3040264.0,4338273.0,141646.0,282977.0,225632.0,315179.0,0.6260162591934204,75.0
1845081.0,3431130.0,3029833.0,4320897.0,139793.0,281643.0,224534.0,312644.0,0.5792682766914368,75.0
1847890.0,3435106.0,3035312.0,4332825.0,141292.0,282099.0,226018.0,315426.0,0.6260162591934204,74.0
1843779.0,3428594.0,3026600.0,4316578.0,140686.0,282307.0,224594.0,312143.0,0.6260162591934204,74.0
1843779.0,3428594.0,3026600.0,4316578.0,140686.0,282307.0,224594.0,312143.0,0.6260162591934204,74.0
1840194.0,3421361.0,3017831.0,4300406.0,140263.0,281414.0,223067.0,310902.0,0.5792682766914368,74.0
1837495.0,3413647.0,3011021.0,4288564.0,140032.0,280106.0,222865.0,310031.0,0.6260162591934204,74.0
1836109.0,3413182.0,3010864.0,4290778.0,140183.0,280561.0,222405.0,310651.0,0.5792682766914368,74.0
1830425.0,3403997.0,3002449.0,4272347.0,138929.0,277842.0,221755.0,308500.0,0.6260162591934204,74.0
1832959.0,3408438.0,3005602.0,4278831.0,139816.0,279052.0,222889.0,310063.0,0.6260162591934204,74.0
1834450.0,3410525.0,3008525.0,4283749.0,138707.0,280702.0,224052.0,309810.0,0.6260162591934204,73.0
1830031.0,3401133.0,2995564.0,4263618.0,138738.0,277743.0,220640.0,306880.0,0.6260162591934204,73.0
1832815.0,3407272.0,3004515.0,4277095.0,139741.0,278839.0,222696.0,310044.0,0.6260162591934204,72.0
1829390.0,3402916.0,2998763.0,4267906.0,138442.0,278497.0,221467.0,307804.0,0.5792682766914368,72.0
1828197.0,3399416.0,2995371.0,4261788.0,138425.0,277881.0,221709.0,306325.0,0.6260162591934204,72.0
1830538.0,3403794.0,3001511.0,4272296.0,138842.0,279069.0,221720.0,309515.0,0.5792682766914368,72.0
1829137.0,3401293.0,2996202.0,4265570.0,138608.0,278141.0,220037.0,307608.0,0.5792682766914368,72.0
1835564.0,3411330.0,3008472.0,4285961.0,139131.0,280554.0,222867.0,311015.0,0.5380200743675232,72.0
1830045.0,3400974.0,2999979.0,4270553.0,138708.0,278249.0,221570.0,308728.0,0.5792682766914368,72.0
1834717.0,3409463.0,3007419.0,4283643.0,139832.0,280665.0,224170.0,311112.0,0.6260162591934204,72.0
1830413.0,3402447.0,2999740.0,4271319.0,139137.0,278459.0,222316.0,309521.0,0.6260162591934204,72.0
1830357.0,3402746.0,3001048.0,4273700.0,137898.0,278191.0,221434.0,309750.0,0.501354992389679,72.0
1830286.0,3404324.0,3002679.0,4276032.0,138779.0,279565.0,221848.0,310350.0,0.5380200743675232,72.0
1828927.0,3402022.0,3000860.0,4271302.0,137621.0,277146.0,221878.0,310145.0,0.5380200743675232,72.0
1832749.0,3408339.0,3008282.0,4288194.0,138851.0,280200.0,223121.0,312077.0,0.5380200743675232,72.0
1827929.0,3398395.0,2997624.0,4266984.0,139122.0,278603.0,221748.0,309779.0,0.5792682766914368,72.0
1832703.0,3408321.0,3008324.0,4287175.0,139216.0,279849.0,223645.0,311863.0,0.5792682766914368,71.0
1826872.0,3398071.0,2996250.0,4266652.0,137822.0,277964.0,220833.0,309887.0,0.501354992389679,71.0
1828016.0,3399301.0,2998912.0,4272377.0,137136.0,278089.0,221362.0,310102.0,0.501354992389679,70.0
1825800.0,3395128.0,2994164.0,4263389.0,137937.0,276836.0,220828.0,309313.0,0.5792682766914368,70.0
1825888.0,3396760.0,2995200.0,4265088.0,137399.0,276913.0,222229.0,309832.0,0.5792682766914368,70.0
1827472.0,3400155.0,3000282.0,4275201.0,137598.0,277849.0,221925.0,310441.0,0.501354992389679,69.0
1821892.0,3388840.0,2986665.0,4252769.0,136904.0,276588.0,220803.0,307775.0,0.5380200743675232,69.0
1826240.0,3396334.0,2996450.0,4268519.0,137979.0,277984.0,222115.0,310314.0,0.5380200743675232,69.0
1820282.0,3386250.0,2983240.0,4246100.0,136177.0,275692.0,220250.0,306317.0,0.5380200743675232,68.0
1820679.0,3386286.0,2984498.0,4248550.0,136674.0,275504.0,218727.0,306464.0,0.501354992389679,68.0
1820470.0,3388555.0,2987885.0,4253932.0,135964.0,276297.0,221052.0,307580.0,0.5380200743675232,68.0
1818852.0,3384314.0,2982641.0,4244778.0,136377.0,275421.0,219475.0,306556.0,0.5380200743675232,68.0
1822580.0,3393466.0,2993029.0,4264243.0,136614.0,275436.0,221353.0,310239.0,0.501354992389679,68.0
1817668.0,3382260.0,2981297.0,4243496.0,134652.0,272975.0,218874.0,306008.0,0.501354992389679,68.0
1822306.0,3392374.0,2992447.0,4262238.0,136742.0,275754.0,221613.0,309824.0,0.5380200743675232,67.0
1816703.0,3381607.0,2980842.0,4243217.0,135344.0,273970.0,218647.0,306108.0,0.501354992389679,67.0
1815746.0,3380782.0,2981184.0,4243951.0,134848.0,273014.0,218899.0,305810.0,0.501354992389679,67.0
1817422.0,3384234.0,2984233.0,4252355.0,135010.0,273307.0,219269.0,307299.0,0.501354992389679,67.0
1816656.0,3380735.0,2979190.0,4242006.0,135113.0,273332.0,218214.0,305981.0,0.501354992389679,67.0
1819874.0,3388923.0,2989559.0,4261049.0,135267.0,274622.0,220341.0,308071.0,0.501354992389679,67.0
1814899.0,3379407.0,2978509.0,4241123.0,135114.0,273182.0,218252.0,305743.0,0.501354992389679,68.0
1818250.0,3384329.0,2985075.0,4253686.0,135515.0,274336.0,218923.0,307502.0,0.501354992389679,68.0
1813725.0,3379280.0,2979132.0,4243034.0,135242.0,272936.0,217644.0,305749.0,0.501354992389679,68.0
1812185.0,3374085.0,2978688.0,4244156.0,133627.0,272012.0,217366.0,306332.0,0.4685494303703308,75.0
1810698.0,3372822.0,2977693.0,4242299.0,134232.0,271021.0,218437.0,305840.0,0.501354992389679,75.0
1810698.0,3372822.0,2977693.0,4242299.0,134232.0,271021.0,218437.0,305840.0,0.501354992389679,75.0
1808094.0,3366802.0,2971081.0,4230628.0,132543.0,269439.0,215301.0,301982.0,0.4685494303703308,75.0
1812780.0,3367651.0,2963943.0,4204766.0,135835.0,271143.0,215460.0,298487.0,0.6260162591934204,71.0
1727193.0,3209938.0,2828120.0,4013571.0,129129.0,258935.0,206992.0,286190.0,0.6260162591934204,72.0
1819714.0,3383329.0,2980754.0,4234825.0,136290.0,274034.0,218948.0,303879.0,0.5792682766914368,72.0
1817787.0,3379336.0,2976379.0,4223951.0,136621.0,273940.0,218300.0,300578.0,0.6260162591934204,72.0
1817787.0,3379336.0,2976379.0,4223951.0,136621.0,273940.0,218300.0,300578.0,0.6260162591934204,72.0
1823714.0,3388397.0,2984445.0,4241140.0,136493.0,275462.0,219424.0,303978.0,0.5792682766914368,72.0
1820960.0,3382890.0,2980134.0,4233979.0,137199.0,273941.0,218021.0,302864.0,0.6260162591934204,72.0
1820937.0,3385564.0,2983986.0,4240962.0,137043.0,274007.0,217528.0,303190.0,0.5792682766914368,72.0
1820959.0,3384479.0,2983386.0,4236455.0,136903.0,275087.0,218422.0,302721.0,0.5792682766914368,73.0
1825565.0,3394243.0,2992923.0,4256773.0,137320.0,276700.0,220741.0,306031.0,0.5792682766914368,73.0
1820520.0,3385115.0,2983980.0,4237634.0,136169.0,274802.0,218130.0,301854.0,0.5792682766914368,74.0
1823417.0,3388169.0,2986648.0,4243213.0,138045.0,275997.0,219928.0,304437.0,0.6260162591934204,74.0
1818277.0,3378292.0,2976007.0,4224775.0,136877.0,273408.0,218010.0,301524.0,0.6260162591934204,74.0
1815627.0,3376670.0,2973058.0,4218479.0,135891.0,274404.0,217425.0,301209.0,0.5380200743675232,74.0
1820119.0,3383975.0,2983154.0,4235509.0,135895.0,274863.0,218509.0,303516.0,0.5380200743675232,74.0
1820228.0,3383800.0,2980068.0,4230944.0,137253.0,274806.0,218960.0,303372.0,0.6260162591934204,74.0
1819146.0,3380970.0,2977169.0,4224501.0,136765.0,275238.0,218212.0,301070.0,0.6260162591934204,74.0
1821379.0,3384792.0,2982110.0,4234122.0,137453.0,274527.0,218942.0,303569.0,0.6260162591934204,74.0
1814474.0,3371152.0,2968121.0,4208993.0,136154.0,273466.0,217985.0,299960.0,0.6260162591934204,74.0
1812945.0,3370844.0,2967077.0,4207580.0,135772.0,273310.0,215899.0,299106.0,0.5792682766914368,73.0
1818711.0,3380513.0,2978350.0,4225995.0,136911.0,273005.0,217977.0,302362.0,0.6260162591934204,73.0
1815383.0,3373241.0,2968648.0,4211524.0,136856.0,274051.0,217027.0,300551.0,0.6260162591934204,73.0
1819006.0,3379274.0,2975272.0,4220680.0,137130.0,273934.0,217883.0,301349.0,0.6260162591934204,73.0
1817380.0,3376476.0,2972454.0,4216993.0,136739.0,272973.0,217515.0,301345.0,0.6260162591934204,73.0
1814133.0,3368357.0,2963531.0,4198700.0,136861.0,272810.0,215912.0,298783.0,0.6260162591934204,73.0
1725000.0,3205756.0,2821540.0,4000065.0,129810.0,260309.0,206360.0,283871.0,0.6260162591934204,73.0
1817012.0,3376181.0,2971534.0,4214072.0,135831.0,274172.0,216906.0,299498.0,0.5792682766914368,73.0
1817587.0,3375004.0,2970886.0,4210038.0,136881.0,274359.0,218652.0,299417.0,0.6260162591934204,73.0
1819681.0,3379990.0,2976664.0,4220044.0,136672.0,275061.0,218300.0,300686.0,0.6260162591934204,74.0
1817944.0,3374163.0,2969044.0,4208487.0,137039.0,274647.0,217838.0,300383.0,0.6260162591934204,74.0
1817944.0,3374163.0,2969044.0,4208487.0,137039.0,274647.0,217838.0,300383.0,0.6260162591934204,74.0
1811922.0,3365759.0,2959905.0,4190684.0,135688.0,272465.0,216235.0,296029.0,0.6260162591934204,74.0
1817611.0,3375616.0,2970512.0,4211282.0,137547.0,274658.0,217689.0,299639.0,0.6260162591934204,74.0
1822326.0,3383159.0,2977508.0,4225133.0,138678.0,276120.0,219182.0,303027.0,0.6260162591934204,74.0
1821796.0,3383209.0,2979415.0,4224251.0,138573.0,276161.0,219080.0,302468.0,0.6260162591934204,75.0
1817518.0,3377079.0,2972260.0,4211989.0,137287.0,275073.0,218338.0,301165.0,0.6260162591934204,75.0
1821018.0,3382174.0,2976999.0,4222168.0,137719.0,276086.0,219818.0,303042.0,0.6260162591934204,75.0
1817475.0,3374657.0,2967775.0,4206008.0,137035.0,273877.0,217954.0,299850.0,0.6260162591934204,75.0
1818461.0,3377207.0,2971003.0,4210159.0,137713.0,274482.0,218504.0,299785.0,0.6260162591934204,76.0
1824572.0,3388703.0,2983659.0,4232940.0,139231.0,277091.0,220907.0,303968.0,0.6260162591934204,76.0
1823457.0,3384024.0,2979524.0,4226069.0,137822.0,275872.0,219847.0,303150.0,0.6260162591934204,76.0
1822716.0,3383528.0,2978529.0,4223868.0,137906.0,276714.0,219049.0,302566.0,0.6260162591934204,76.0
1823503.0,3387021.0,2982299.0,4232013.0,137776.0,276821.0,219990.0,303366.0,0.6260162591934204,76.0
1822433.0,3382957.0,2977552.0,4223445.0,137268.0,275990.0,219729.0,302220.0,0.6260162591934204,76.0
1826863.0,3389312.0,2986621.0,4237428.0,139384.0,278073.0,221107.0,305735.0,0.6260162591934204,76.0
1830017.0,3396822.0,2993247.0,4252429.0,139469.0,278936.0,221442.0,306179.0,0.6260162591934204,76.0
1826998.0,3390362.0,2986252.0,4239922.0,139484.0,278075.0,220216.0,304538.0,0.6260162591934204,76.0
1828811.0,3396370.0,2993425.0,4250774.0,139950.0,278561.0,221438.0,306138.0,0.6260162591934204,76.0
1830008.0,3398025.0,2995745.0,4255228.0,139172.0,279231.0,221533.0,307005.0,0.5792682766914368,76.0
1832703.0,3401404.0,2998857.0,4260930.0,140342.0,280032.0,223363.0,307689.0,0.6260162591934204,76.0
1832197.0,3402527.0,3001348.0,4266974.0,139824.0,279088.0,221994.0,307872.0,0.6260162591934204,76.0
1833083.0,3404327.0,3004847.0,4272477.0,140416.0,278797.0,223526.0,309660.0,0.6260162591934204,76.0
1835911.0,3409555.0,3008426.0,4278632.0,139895.0,280713.0,224565.0,309730.0,0.6260162591934204,76.0
1839598.0,3414203.0,3014945.0,4291039.0,141701.0,281537.0,225278.0,312706.0,0.6260162591934204,76.0
1833918.0,3405837.0,3004859.0,4272921.0,139666.0,281130.0,223147.0,309074.0,0.5792682766914368,76.0
1833918.0,3405837.0,3004859.0,4272921.0,139666.0,281130.0,223147.0,309074.0,0.5792682766914368,76.0
1827978.0,3393733.0,2992657.0,4249102.0,139812.0,278155.0,221477.0,306743.0,0.6260162591934204,76.0
1824369.0,3388045.0,2985529.0,4238988.0,137605.0,276552.0,220378.0,304860.0,0.6260162591934204,76.0
1827177.0,3392685.0,2990395.0,4245203.0,139794.0,278579.0,220920.0,305717.0,0.6260162591934204,76.0
1831837.0,3400450.0,2999160.0,4262801.0,139319.0,279818.0,222354.0,308644.0,0.5792682766914368,76.0
1830366.0,3397702.0,2995455.0,4255359.0,140339.0,280123.0,221335.0,306955.0,0.6260162591934204,76.0
1828364.0,3395609.0,2994445.0,4250731.0,139502.0,277812.0,222011.0,306890.0,0.6260162591934204,76.0
1828953.0,3394807.0,2992672.0,4251022.0,138911.0,277902.0,220499.0,305292.0,0.6260162591934204,76.0
1831010.0,3399982.0,2997338.0,4259650.0,138350.0,278944.0,221846.0,307320.0,0.5792682766914368,76.0
1836668.0,3407385.0,3006193.0,4275425.0,140468.0,280610.0,223118.0,308702.0,0.6260162591934204,76.0
1839377.0,3412827.0,3013097.0,4284796.0,140534.0,281413.0,223285.0,309298.0,0.6260162591934204,76.0
1835899.0,3407505.0,3005863.0,4271553.0,139389.0,279694.0,222391.0,307854.0,0.6260162591934204,77.0
1835912.0,3409247.0,3007074.0,4276178.0,139587.0,279669.0,221837.0,307485.0,0.6260162591934204,77.0
1833294.0,3403585.0,3001912.0,4267310.0,139828.0,278404.0,220831.0,307095.0,0.6260162591934204,77.0
1831014.0,3398885.0,2999308.0,4258774.0,139686.0,277205.0,219718.0,305742.0,0.6260162591934204,77.0
1829600.0,3398705.0,2996491.0,4257400.0,139302.0,277638.0,220074.0,306448.0,0.6260162591934204,77.0
1826782.0,3391903.0,2988968.0,4244794.0,139361.0,275821.0,218567.0,304003.0,0.6260162591934204,77.0
1827186.0,3392234.0,2990796.0,4247815.0,138834.0,276380.0,220559.0,304635.0,0.6260162591934204,77.0
1827920.0,3394442.0,2993178.0,4251177.0,138889.0,276435.0,219657.0,304770.0,0.6260162591934204,77.0
1825665.0,3390945.0,2989378.0,4246368.0,138580.0,277421.0,219836.0,304020.0,0.6260162591934204,77.0
1825784.0,3390745.0,2989384.0,4244893.0,137977.0,275749.0,220355.0,304096.0,0.6260162591934204,77.0
1828834.0,3394547.0,2993576.0,4252973.0,138420.0,276999.0,220390.0,305959.0,0.6260162591934204,76.0
1828112.0,3395607.0,2994514.0,4254659.0,138674.0,278010.0,220650.0,305709.0,0.6260162591934204,76.0
1830881.0,3401124.0,2999998.0,4264184.0,139443.0,277535.0,222117.0,307159.0,0.6260162591934204,76.0
1835943.0,3408951.0,3009116.0,4281582.0,140837.0,279331.0,222972.0,310475.0,0.6260162591934204,76.0
1837125.0,3411390.0,3011551.0,4285212.0,139234.0,279700.0,222550.0,308634.0,0.6260162591934204,76.0
1837125.0,3411390.0,3011551.0,4285212.0,139234.0,279700.0,222550.0,308634.0,0.6260162591934204,76.0
1835144.0,3408572.0,3007652.0,4277737.0,139518.0,279336.0,222166.0,306847.0,0.6260162591934204,76.0
1840387.0,3418346.0,3018887.0,4298532.0,140590.0,280879.0,224275.0,310918.0,0.6260162591934204,76.0
1840252.0,3417133.0,3018855.0,4297289.0,139931.0,280771.0,224134.0,310405.0,0.6260162591934204,76.0
1837966.0,3412593.0,3011836.0,4288287.0,140883.0,280691.0,222915.0,309976.0,0.6260162591934204,76.0
1833152.0,3402918.0,3003032.0,4269575.0,138829.0,278588.0,222903.0,308071.0,0.6260162591934204,77.0
1837952.0,3411209.0,3011644.0,4285517.0,139957.0,281397.0,223740.0,311678.0,0.5380200743675232,77.0
1830216.0,3398920.0,2997805.0,4260616.0,140134.0,279015.0,223389.0,307995.0,0.6260162591934204,78.0
1831834.0,3400450.0,3000032.0,4265137.0,139832.0,279237.0,222807.0,308082.0,0.6260162591934204,78.0
1828054.0,3396345.0,2994364.0,4256107.0,138755.0,277892.0,221192.0,307095.0,0.6260162591934204,78.0
1831155.0,3401064.0,2999797.0,4265327.0,139467.0,279051.0,221253.0,307784.0,0.5792682766914368,78.0
1830634.0,3400277.0,3000306.0,4265289.0,138586.0,280408.0,223545.0,309098.0,0.5792682766914368,78.0
1830302.0,3398945.0,2997853.0,4259533.0,139940.0,279505.0,222910.0,308644.0,0.6260162591934204,78.0
1739914.0,3231338.0,2850300.0,4051898.0,131948.0,266188.0,211467.0,292634.0,0.5792682766914368,77.0
1826539.0,3393127.0,2990692.0,4247172.0,139042.0,277621.0,220993.0,306367.0,0.6260162591934204,77.0
1826776.0,3393346.0,2992643.0,4251945.0,137995.0,278029.0,222189.0,306178.0,0.6260162591934204,76.0
1822352.0,3384385.0,2982034.0,4233041.0,138637.0,276780.0,219645.0,303529.0,0.6260162591934204,76.0
1815202.0,3373899.0,2971344.0,4215991.0,136720.0,273655.0,218255.0,300085.0,0.6260162591934204,76.0
1814961.0,3373944.0,2971437.0,4215889.0,136664.0,273395.0,216636.0,299100.0,0.6260162591934204,76.0
1824330.0,3389418.0,2988740.0,4247344.0,138509.0,276917.0,220020.0,305580.0,0.6260162591934204,75.0
1826637.0,3393310.0,2993082.0,4254527.0,137786.0,276999.0,221448.0,305849.0,0.6260162591934204,75.0
1829916.0,3400942.0,3001504.0,4268745.0,139218.0,277660.0,222356.0,308923.0,0.6260162591934204,74.0
1834860.0,3408223.0,3008582.0,4282249.0,140623.0,280838.0,223473.0,310164.0,0.6260162591934204,74.0
1833038.0,3406661.0,3005561.0,4275545.0,139344.0,279870.0,222280.0,308666.0,0.5792682766914368,74.0
1839241.0,3417596.0,3019403.0,4300717.0,140878.0,281847.0,225148.0,312339.0,0.6260162591934204,74.0
1745803.0,3243292.0,2864759.0,4079295.0,133173.0,266509.0,213274.0,295450.0,0.6260162591934204,74.0
1843741.0,3425918.0,3029600.0,4318495.0,141352.0,282193.0,226174.0,314159.0,0.6260162591934204,74.0
1843753.0,3424683.0,3028044.0,4315447.0,140868.0,281890.0,227023.0,314103.0,0.6260162591934204,74.0
1755547.0,3259278.0,2885153.0,4115000.0,136163.0,269331.0,215367.0,300276.0,0.6260162591934204,74.0
1845894.0,3428624.0,3032853.0,4327008.0,140856.0,283284.0,227032.0,316795.0,0.5792682766914368,74.0
1845040.0,3429810.0,3033342.0,4326715.0,142932.0,284656.0,226951.0,316710.0,0.6260162591934204,74.0
1844646.0,3426827.0,3031655.0,4322702.0,141763.0,281736.0,226433.0,316956.0,0.6260162591934204,74.0
1839805.0,3419215.0,3022067.0,4306709.0,140884.0,282230.0,226229.0,314474.0,0.6260162591934204,74.0
1836821.0,3413720.0,3017185.0,4297762.0,140396.0,282053.0,225110.0,313494.0,0.5792682766914368,74.0
1832906.0,3407685.0,3009583.0,4285730.0,140646.0,280722.0,224404.0,311789.0,0.6260162591934204,74.0
1827789.0,3396464.0,2998270.0,4263704.0,139963.0,279973.0,223082.0,309407.0,0.6260162591934204,74.0
1829388.0,3397927.0,2999336.0,4266523.0,140024.0,279872.0,224588.0,310359.0,0.6260162591934204,74.0
1829584.0,3399398.0,3000840.0,4269580.0,140809.0,280746.0,224329.0,311465.0,0.6260162591934204,74.0
1826758.0,3395286.0,2995670.0,4260825.0,139716.0,279800.0,223265.0,309761.0,0.6260162591934204,74.0
1831331.0,3401274.0,3002891.0,4271683.0,141157.0,280557.0,224888.0,312034.0,0.6260162591934204,74.0
1832176.0,3405363.0,3008495.0,4282144.0,140512.0,281022.0,225345.0,313107.0,0.6260162591934204,74.0
1832663.0,3406160.0,3009374.0,4281615.0,139380.0,281111.0,224750.0,311821.0,0.5792682766914368,74.0
1838150.0,3417069.0,3022969.0,4306099.0,141105.0,281817.0,226651.0,314336.0,0.6260162591934204,74.0
1837063.0,3414964.0,3019640.0,4300244.0,140348.0,281553.0,225289.0,313503.0,0.5792682766914368,74.0
1843199.0,3424935.0,3030893.0,4321512.0,142442.0,283691.0,226775.0,316654.0,0.6260162591934204,74.0
1843889.0,3423962.0,3027279.0,4318342.0,141617.0,282986.0,226724.0,316779.0,0.5792682766914368,74.0
1846296.0,3429160.0,3033800.0,4327546.0,142867.0,284413.0,227671.0,318184.0,0.6260162591934204,74.0
1749456.0,3249604.0,2874486.0,4097358.0,135246.0,269282.0,216198.0,300991.0,0.6260162591934204,74.0
1841223.0,3420464.0,3024103.0,4310936.0,142052.0,283938.0,227132.0,316193.0,0.6260162591934204,74.0
1836757.0,3412502.0,3016137.0,4295028.0,141212.0,282354.0,225761.0,314080.0,0.6260162591934204,74.0
1834882.0,3408242.0,3009848.0,4285983.0,140447.0,282628.0,226099.0,313930.0,0.5792682766914368,74.0
1834882.0,3408242.0,3009848.0,4285983.0,140447.0,282628.0,226099.0,313930.0,0.5792682766914368,74.0
1830928.0,3401447.0,3003174.0,4273713.0,140129.0,281190.0,223365.0,312143.0,0.5792682766914368,74.0
1826649.0,3394542.0,2995360.0,4258947.0,139765.0,279583.0,223575.0,311141.0,0.5792682766914368,74.0
1819839.0,3381275.0,2979674.0,4231304.0,138383.0,277133.0,220952.0,307112.0,0.5792682766914368,74.0
1822578.0,3384926.0,2985275.0,4240778.0,138985.0,278115.0,222479.0,309379.0,0.5792682766914368,71.0
1725667.0,3208031.0,2826664.0,4011130.0,130513.0,262889.0,209046.0,289665.0,0.5792682766914368,71.0
1815857.0,3374099.0,2973550.0,4216924.0,137418.0,276369.0,219934.0,304605.0,0.5792682766914368,70.0
1814905.0,3371257.0,2969930.0,4212788.0,136858.0,273691.0,219008.0,303535.0,0.6260162591934204,70.0
1810760.0,3362988.0,2960654.0,4197809.0,136707.0,272913.0,216475.0,300651.0,0.6260162591934204,68.0
1812236.0,3368201.0,2968329.0,4211671.0,136272.0,273516.0,218540.0,302589.0,0.6260162591934204,68.0
1809365.0,3362872.0,2961124.0,4199277.0,135497.0,273070.0,216747.0,300287.0,0.5380200743675232,68.0
1812115.0,3366988.0,2966277.0,4208934.0,136418.0,273210.0,217293.0,301830.0,0.5792682766914368,68.0
1815055.0,3373059.0,2973744.0,4221929.0,137119.0,274967.0,218915.0,303399.0,0.6260162591934204,68.0
1817345.0,3376651.0,2977351.0,4228018.0,137106.0,275134.0,219482.0,304287.0,0.5792682766914368,68.0
1820247.0,3383086.0,2985602.0,4244935.0,137198.0,275609.0,220683.0,307131.0,0.5792682766914368,68.0
1823227.0,3388879.0,2991329.0,4255665.0,137726.0,276277.0,221535.0,307980.0,0.5792682766914368,68.0
1823190.0,3387509.0,2988706.0,4250859.0,138249.0,276539.0,219455.0,307889.0,0.5792682766914368,68.0
1824369.0,3390883.0,2994105.0,4258964.0,138149.0,278313.0,222070.0,308799.0,0.5380200743675232,67.0
1821999.0,3386882.0,2990138.0,4253698.0,137880.0,275631.0,220047.0,306593.0,0.5792682766914368,67.0
1823787.0,3389928.0,2993432.0,4258220.0,138151.0,276673.0,221039.0,307593.0,0.5792682766914368,68.0
1824378.0,3392462.0,2996884.0,4266671.0,138456.0,276889.0,220626.0,308612.0,0.5792682766914368,69.0
1826216.0,3394584.0,2999138.0,4271008.0,138934.0,277392.0,222117.0,310379.0,0.5792682766914368,69.0
1828927.0,3401714.0,3007327.0,4286227.0,138403.0,277753.0,223455.0,311631.0,0.5792682766914368,70.0
1827528.0,3397769.0,3002980.0,4280448.0,138099.0,276921.0,220605.0,311024.0,0.4685494303703308,70.0
1831784.0,3407238.0,3012958.0,4300252.0,138817.0,279435.0,224152.0,314823.0,0.501354992389679,70.0
1828142.0,3401123.0,3008350.0,4288858.0,138862.0,278030.0,223592.0,312635.0,0.5792682766914368,70.0
1828142.0,3401123.0,3008350.0,4288858.0,138862.0,278030.0,223592.0,312635.0,0.5792682766914368,70.0
1828258.0,3399641.0,3006807.0,4287597.0,138521.0,278032.0,222780.0,312643.0,0.501354992389679,70.0
1826865.0,3397437.0,3004991.0,4285510.0,138028.0,276581.0,223430.0,313813.0,0.5792682766914368,70.0
1827720.0,3398138.0,3005917.0,4286426.0,137826.0,277072.0,222671.0,313691.0,0.501354992389679,70.0
1823167.0,3391735.0,2997554.0,4269911.0,137909.0,277375.0,222091.0,312319.0,0.501354992389679,71.0
1813610.0,3373586.0,2981217.0,4244543.0,136673.0,274864.0,222001.0,308857.0,0.5792682766914368,71.0
1802824.0,3355729.0,2962302.0,4216754.0,134499.0,273230.0,217467.0,305140.0,0.4685494303703308,71.0
1800397.0,3352326.0,2959206.0,4207522.0,134751.0,271910.0,216843.0,304411.0,0.4685494303703308,71.0
1807225.0,3366963.0,2973474.0,4232938.0,136114.0,274604.0,218828.0,307603.0,0.4685494303703308,70.0
1815543.0,3378162.0,2982539.0,4245391.0,136270.0,275538.0,220394.0,308156.0,0.501354992389679,70.0
1820322.0,3385787.0,2990827.0,4258200.0,137957.0,276677.0,221005.0,310691.0,0.501354992389679,70.0
1818309.0,3384316.0,2989427.0,4257933.0,136182.0,274994.0,220949.0,309678.0,0.501354992389679,70.0
1815661.0,3378595.0,2984457.0,4246343.0,136592.0,275348.0,220811.0,307487.0,0.5380200743675232,70.0
1817400.0,3383376.0,2989658.0,4255307.0,136916.0,276053.0,221208.0,308087.0,0.5380200743675232,70.0
1818338.0,3384107.0,2988205.0,4259942.0,136224.0,274334.0,219171.0,307878.0,0.501354992389679,70.0
1816534.0,3380625.0,2985326.0,4251819.0,135068.0,274099.0,218059.0,306311.0,0.4685494303703308,70.0
1728730.0,3216348.0,2840753.0,4048855.0,128792.0,259605.0,208155.0,292979.0,0.4685494303703308,70.0
1818355.0,3385209.0,2991226.0,4261997.0,135784.0,274885.0,219961.0,308679.0,0.501354992389679,70.0
1817097.0,3380988.0,2986588.0,4255909.0,136060.0,273500.0,219355.0,306930.0,0.5792682766914368,72.0
1814321.0,3379383.0,2986554.0,4253559.0,135312.0,273688.0,219934.0,307345.0,0.501354992389679,72.0
1817503.0,3384875.0,2990203.0,4262859.0,136384.0,274764.0,219932.0,309611.0,0.501354992389679,72.0
1816021.0,3382684.0,2988560.0,4259273.0,135338.0,274293.0,220333.0,309266.0,0.501354992389679,72.0
1811663.0,3375650.0,2979950.0,4241991.0,133902.0,273000.0,218373.0,305222.0,0.501354992389679,72.0
1810268.0,3369945.0,2973294.0,4232899.0,134888.0,272385.0,217001.0,305018.0,0.4685494303703308,72.0
1809889.0,3368571.0,2974008.0,4234825.0,135683.0,272471.0,218282.0,307244.0,0.501354992389679,72.0
1809889.0,3368571.0,2974008.0,4234825.0,135683.0,272471.0,218282.0,307244.0,0.501354992389679,72.0
1807687.0,3365159.0,2968549.0,4221214.0,135165.0,271925.0,218365.0,302578.0,0.6260162591934204,0.0
1807858.0,3363454.0,2968119.0,4218174.0,134762.0,271921.0,217603.0,301394.0,0.5792682766914368,0.0
1807278.0,3363602.0,2967316.0,4219746.0,135846.0,271729.0,217500.0,303339.0,0.5792682766914368,0.0
1809182.0,3366497.0,2972406.0,4224611.0,135937.0,273226.0,218570.0,303181.0,0.5792682766914368,0.0
1806494.0,3361344.0,2963684.0,4211906.0,135949.0,273226.0,217527.0,302023.0,0.5792682766914368,0.0
1810828.0,3367839.0,2970810.0,4222665.0,136990.0,273105.0,217697.0,303019.0,0.6260162591934204,0.0
1804326.0,3358500.0,2961521.0,4206444.0,134840.0,272363.0,216616.0,300413.0,0.5380200743675232,0.0
1802752.0,3356744.0,2958809.0,4200791.0,134553.0,271654.0,216272.0,300002.0,0.5380200743675232,0.0
1811042.0,3367528.0,2971635.0,4224599.0,135889.0,273555.0,217523.0,303172.0,0.5380200743675232,0.0
1808313.0,3362925.0,2965252.0,4210010.0,136660.0,273125.0,217733.0,300465.0,0.6260162591934204,0.0
1809172.0,3364913.0,2967269.0,4214459.0,137242.0,273455.0,218174.0,302456.0,0.6260162591934204,0.0
1807442.0,3361297.0,2961981.0,4205635.0,137452.0,273046.0,217398.0,301365.0,0.6260162591934204,0.0
1804096.0,3355316.0,2955552.0,4193016.0,136352.0,272594.0,216076.0,299042.0,0.6260162591934204,0.0
1803120.0,3353689.0,2953927.0,4190438.0,135609.0,271127.0,215393.0,298173.0,0.6260162591934204,0.0
1803717.0,3354828.0,2954915.0,4191776.0,137379.0,272466.0,216527.0,299354.0,0.6260162591934204,0.0
1808982.0,3364664.0,2965944.0,4210195.0,136888.0,273592.0,217191.0,301590.0,0.6260162591934204,0.0
1807646.0,3362745.0,2963440.0,4204530.0,136252.0,273528.0,217965.0,300880.0,0.6260162591934204,0.0
1808622.0,3364543.0,2963785.0,4202986.0,136074.0,273463.0,218932.0,300541.0,0.6260162591934204,0.0
1809864.0,3365543.0,2966743.0,4209229.0,136319.0,273815.0,217798.0,301170.0,0.6260162591934204,0.0
1804769.0,3357335.0,2956470.0,4190760.0,135234.0,272205.0,216440.0,297580.0,0.6260162591934204,0.0
1812472.0,3367533.0,2967222.0,4208076.0,137492.0,275196.0,218021.0,300067.0,0.6260162591934204,0.0
1813820.0,3369817.0,2968673.0,4214242.0,137825.0,276002.0,218031.0,301318.0,0.6260162591934204,0.0
1813516.0,3369709.0,2968121.0,4209703.0,137407.0,275330.0,219219.0,302151.0,0.6260162591934204,0.0
1814356.0,3371431.0,2971757.0,4215414.0,138298.0,275902.0,219096.0,302854.0,0.6260162591934204,0.0
1811009.0,3364272.0,2964052.0,4201108.0,137331.0,275080.0,218917.0,301360.0,0.6260162591934204,0.0
1813056.0,3370468.0,2968439.0,4209053.0,138687.0,276052.0,219569.0,301090.0,0.6260162591934204,0.0
1808180.0,3361048.0,2958944.0,4192238.0,137075.0,273971.0,218287.0,298893.0,0.6260162591934204,0.0
1811144.0,3364533.0,2962285.0,4196946.0,138121.0,274880.0,218274.0,300571.0,0.6260162591934204,0.0
1815544.0,3370971.0,2968073.0,4208503.0,138760.0,277644.0,219729.0,301764.0,0.6260162591934204,0.0
1810380.0,3361326.0,2958913.0,4191024.0,138300.0,275168.0,218490.0,298900.0,0.6260162591934204,0.0
1814087.0,3369052.0,2965801.0,4200839.0,138885.0,277837.0,218659.0,301313.0,0.6260162591934204,0.0
1810639.0,3362016.0,2959666.0,4188841.0,138716.0,275522.0,218711.0,300213.0,0.6260162591934204,0.0
1808139.0,3356684.0,2952704.0,4178303.0,137304.0,273574.0,217220.0,297468.0,0.6260162591934204,0.0
1814871.0,3368815.0,2963635.0,4197889.0,139262.0,276176.0,218855.0,300478.0,0.6260162591934204,0.0
1814871.0,3368815.0,2963635.0,4197889.0,139262.0,276176.0,218855.0,300478.0,0.6260162591934204,0.0
1814739.0,3369576.0,2967672.0,4200842.0,138712.0,276493.0,219345.0,300228.0,0.6260162591934204,0.0
1816193.0,3371874.0,2966691.0,4201807.0,139689.0,277475.0,219060.0,300418.0,0.6260162591934204,0.0
1811236.0,3361671.0,2956597.0,4183578.0,138383.0,274676.0,216702.0,296965.0,0.6260162591934204,0.0
1810550.0,3361813.0,2955000.0,4176932.0,139454.0,276102.0,217613.0,297399.0,0.6794425249099731,0.0
1812362.0,3361845.0,2955585.0,4181678.0,139124.0,277265.0,218568.0,297879.0,0.6260162591934204,0.0
1810704.0,3361079.0,2954989.0,4177510.0,139786.0,276469.0,219001.0,298393.0,0.6794425249099731,0.0
1812284.0,3364617.0,2958646.0,4182589.0,139550.0,277475.0,218959.0,297551.0,0.6794425249099731,0.0
1816787.0,3371085.0,2966881.0,4198295.0,140802.0,278686.0,219631.0,301107.0,0.6260162591934204,0.0
1812363.0,3365702.0,2960419.0,4184748.0,138652.0,276776.0,219855.0,299029.0,0.6794425249099731,0.0
1815071.0,3363879.0,2957895.0,4180937.0,141894.0,277555.0,219108.0,298929.0,0.7410881519317627,0.0
1818168.0,3372425.0,2967837.0,4196761.0,140891.0,278323.0,220802.0,301939.0,0.6794425249099731,0.0
1814821.0,3367007.0,2959676.0,4183816.0,140768.0,278037.0,219453.0,299186.0,0.6794425249099731,0.0
1812973.0,3362793.0,2956786.0,4176581.0,140267.0,277596.0,219932.0,298657.0,0.6794425249099731,0.0
1815902.0,3367905.0,2961630.0,4188220.0,140235.0,278123.0,218846.0,299534.0,0.6260162591934204,0.0
1809067.0,3355745.0,2948258.0,4162648.0,140135.0,275936.0,218236.0,296284.0,0.7410881519317627,0.0
1811494.0,3360872.0,2952944.0,4172748.0,139297.0,276716.0,218788.0,297707.0,0.6794425249099731,0.0
1812927.0,3361468.0,2954977.0,4175621.0,140116.0,277063.0,218542.0,299165.0,0.6794425249099731,0.0
1811326.0,3357964.0,2950277.0,4166686.0,140369.0,277871.0,219069.0,298031.0,0.6794425249099731,0.0
1814474.0,3364524.0,2957447.0,4179986.0,140265.0,278486.0,220754.0,300146.0,0.6794425249099731,0.0
1808917.0,3353944.0,2946291.0,4156851.0,139873.0,276648.0,218301.0,296398.0,0.6794425249099731,0.0
1814691.0,3366131.0,2959388.0,4182324.0,140710.0,278907.0,220228.0,299667.0,0.6794425249099731,0.0
1808308.0,3353410.0,2944003.0,4156970.0,139174.0,277517.0,217341.0,296811.0,0.6260162591934204,0.0
1811533.0,3359390.0,2952510.0,4169593.0,140598.0,278850.0,219055.0,298945.0,0.6794425249099731,0.0
1811533.0,3359390.0,2952510.0,4169593.0,140598.0,278850.0,219055.0,298945.0,0.6794425249099731,0.0
1812558.0,3363438.0,2955781.0,4175349.0,140659.0,277866.0,219596.0,300032.0,0.6794425249099731,0.0
1811132.0,3359253.0,2951210.0,4167851.0,139727.0,277640.0,220186.0,299636.0,0.6794425249099731,0.0
1807552.0,3352603.0,2942291.0,4152160.0,139360.0,276674.0,217502.0,295763.0,0.6794425249099731,0.0
1811076.0,3360446.0,2951013.0,4169473.0,140668.0,277922.0,219208.0,300627.0,0.6260162591934204,0.0
1804254.0,3345453.0,2936074.0,4141869.0,139287.0,276367.0,217146.0,295743.0,0.6794425249099731,0.0
1806972.0,3351638.0,2943554.0,4151614.0,140253.0,277482.0,220810.0,297700.0,0.7410881519317627,0.0
1806899.0,3352596.0,2942409.0,4153972.0,139550.0,277851.0,218908.0,297079.0,0.6794425249099731,0.0
1713799.0,3178780.0,2788636.0,3933884.0,132586.0,262134.0,206506.0,280670.0,0.6794425249099731,0.0
1809191.0,3354166.0,2946070.0,4159564.0,139614.0,277196.0,219619.0,299553.0,0.6260162591934204,0.0
1805281.0,3346712.0,2937420.0,4143990.0,139790.0,275335.0,217350.0,296805.0,0.6794425249099731,0.0
1807845.0,3350781.0,2942254.0,4152854.0,139915.0,277455.0,219905.0,299003.0,0.6794425249099731,0.0
1806473.0,3350986.0,2941679.0,4152618.0,138140.0,275398.0,218761.0,298399.0,0.6260162591934204,0.0
1807600.0,3351810.0,2942707.0,4154180.0,138710.0,277157.0,218908.0,298727.0,0.6260162591934204,0.0
1811360.0,3361244.0,2954196.0,4173816.0,140222.0,277759.0,220773.0,301088.0,0.6794425249099731,0.0
1809201.0,3354678.0,2946471.0,4158560.0,139358.0,277321.0,218896.0,299719.0,0.6260162591934204,0.0
1814950.0,3366534.0,2960178.0,4184733.0,140269.0,278690.0,220591.0,302942.0,0.6260162591934204,0.0
1810541.0,3356606.0,2951148.0,4168292.0,139961.0,276797.0,219088.0,299859.0,0.6260162591934204,0.0
1763593.0,3289485.0,2896636.0,4107652.0,128954.0,259425.0,208079.0,292747.0,0.4685494303703308,0.0
1764716.0,3289771.0,2895321.0,4106743.0,128970.0,260477.0,208039.0,291996.0,0.4685494303703308,0.0
1766566.0,3294814.0,2900544.0,4117789.0,128944.0,260364.0,207270.0,292170.0,0.4390243887901306,0.0
1763493.0,3289803.0,2895933.0,4106939.0,128612.0,259918.0,206503.0,292043.0,0.4390243887901306,0.0
1769355.0,3300098.0,2907731.0,4127848.0,128719.0,260581.0,209863.0,293743.0,0.501354992389679,0.0
1771902.0,3303152.0,2911060.0,4134181.0,129188.0,262122.0,209190.0,293680.0,0.4685494303703308,0.0
1682692.0,3138087.0,2764347.0,3925236.0,121854.0,248421.0,197443.0,279196.0,0.4390243887901306,0.0
1774262.0,3308650.0,2917573.0,4142894.0,129778.0,261958.0,209605.0,295445.0,0.4685494303703308,0.0
1778162.0,3315422.0,2923128.0,4153774.0,130809.0,264463.0,212164.0,299132.0,0.4390243887901306,0.0
1776112.0,3312713.0,2922740.0,4157716.0,131087.0,264744.0,212513.0,300326.0,0.4390243887901306,0.0
1785445.0,3328359.0,2940237.0,4188108.0,131473.0,266368.0,213131.0,302744.0,0.4390243887901306,0.0
1789295.0,3337680.0,2948537.0,4202630.0,132589.0,268888.0,215669.0,306160.0,0.4390243887901306,0.0
1794052.0,3346850.0,2967667.0,4238738.0,132884.0,270161.0,217805.0,310444.0,0.4390243887901306,0.0
1806162.0,3363772.0,2977949.0,4252514.0,134561.0,272746.0,220693.0,313131.0,0.4390243887901306,0.0
1794561.0,3345140.0,2961843.0,4226013.0,133906.0,270437.0,219536.0,311318.0,0.4390243887901306,0.0
1801534.0,3356225.0,2970226.0,4238423.0,133565.0,272355.0,220244.0,312956.0,0.4390243887901306,0.0
1796994.0,3348687.0,2959056.0,4217332.0,133706.0,270700.0,218045.0,309030.0,0.4390243887901306,0.0
1794514.0,3344231.0,2957636.0,4214325.0,133985.0,270425.0,217837.0,309222.0,0.4390243887901306,0.0
1787042.0,3330559.0,2941927.0,4191819.0,131876.0,266612.0,215558.0,305355.0,0.4390243887901306,0.0
1782125.0,3320767.0,2932196.0,4173454.0,130893.0,264372.0,213230.0,301387.0,0.4390243887901306,0.0
1782125.0,3320767.0,2932196.0,4173454.0,130893.0,264372.0,213230.0,301387.0,0.4390243887901306,0.0
1785029.0,3327014.0,2938531.0,4182075.0,131927.0,266157.0,213373.0,302954.0,0.4390243887901306,0.0
1780976.0,3319692.0,2926902.0,4162741.0,130847.0,263464.0,211368.0,299849.0,0.4390243887901306,0.0
1778349.0,3313351.0,2920595.0,4148213.0,129936.0,263387.0,210729.0,296747.0,0.4390243887901306,0.0
1774463.0,3307287.0,2912690.0,4134307.0,128347.0,261190.0,208935.0,295095.0,0.4390243887901306,0.0
1777284.0,3312411.0,2918096.0,4143519.0,130121.0,262933.0,210436.0,295367.0,0.4685494303703308,0.0
1781276.0,3318568.0,2922956.0,4150453.0,130027.0,263097.0,211405.0,296307.0,0.4685494303703308,0.0
1778307.0,3311856.0,2915169.0,4134388.0,130276.0,262853.0,209339.0,292644.0,0.501354992389679,0.0
1780778.0,3318825.0,2922444.0,4147305.0,130273.0,262941.0,209113.0,294103.0,0.4685494303703308,0.0
1777731.0,3312574.0,2918144.0,4139402.0,128756.0,261323.0,208484.0,292393.0,0.4685494303703308,0.0
1786439.0,3326855.0,2934066.0,4168126.0,130638.0,262866.0,208709.0,294201.0,0.4685494303703308,0.0
1785521.0,3327725.0,2934758.0,4167161.0,130226.0,263668.0,210861.0,294789.0,0.501354992389679,0.0
1789172.0,3329428.0,2935055.0,4166866.0,131615.0,263998.0,211896.0,295056.0,0.5792682766914368,0.0
1792362.0,3337450.0,2945136.0,4185163.0,132248.0,265272.0,211649.0,296915.0,0.501354992389679,0.0
1789912.0,3334015.0,2939029.0,4173589.0,131429.0,264792.0,211343.0,296386.0,0.501354992389679,0.0
1784076.0,3321864.0,2927865.0,4154396.0,130861.0,262992.0,209271.0,292210.0,0.501354992389679,0.0
1773284.0,3301192.0,2909150.0,4128244.0,129967.0,261288.0,207256.0,290019.0,0.501354992389679,0.0
1784702.0,3320402.0,2927923.0,4157532.0,131398.0,264821.0,210672.0,294427.0,0.501354992389679,0.0
1791142.0,3334601.0,2941313.0,4178534.0,132593.0,266775.0,212404.0,297726.0,0.501354992389679,0.0
1790491.0,3333400.0,2940244.0,4177496.0,131766.0,266039.0,212709.0,298050.0,0.501354992389679,0.0
1787598.0,3326459.0,2933900.0,4167141.0,132090.0,266256.0,212017.0,296972.0,0.501354992389679,0.0
1789637.0,3328865.0,2935444.0,4167408.0,132266.0,266865.0,212947.0,297434.0,0.501354992389679,0.0
1787257.0,3324297.0,2930893.0,4154790.0,133615.0,266590.0,212348.0,296688.0,0.5792682766914368,0.0
1797052.0,3342695.0,2949530.0,4190794.0,133892.0,267777.0,213503.0,299652.0,0.5380200743675232,0.0
1801687.0,3352395.0,2958294.0,4204010.0,135530.0,270983.0,216163.0,303284.0,0.5792682766914368,0.0
1801687.0,3352395.0,2958294.0,4204010.0,135530.0,270983.0,216163.0,303284.0,0.5792682766914368,0.0
1802170.0,3352097.0,2959501.0,4208341.0,134346.0,271050.0,216254.0,303476.0,0.4685494303703308,0.0
1803764.0,3352213.0,2956171.0,4199349.0,135215.0,271661.0,217517.0,302387.0,0.5792682766914368,0.0
1798614.0,3343372.0,2946125.0,4178870.0,135426.0,270104.0,215598.0,299389.0,0.6260162591934204,0.0
1793863.0,3334184.0,2934767.0,4156908.0,135337.0,270041.0,214328.0,297977.0,0.5792682766914368,0.0
1792760.0,3333649.0,2933094.0,4152565.0,134555.0,269534.0,212885.0,296843.0,0.5792682766914368,0.0
1798166.0,3343207.0,2951569.0,4190482.0,134462.0,269501.0,215303.0,299609.0,0.5792682766914368,0.0
1809909.0,3360817.0,2965199.0,4209444.0,137308.0,275276.0,218673.0,304102.0,0.5792682766914368,0.0
1806510.0,3355424.0,2956399.0,4194826.0,136137.0,271543.0,216068.0,298180.0,0.6260162591934204,0.0
1810610.0,3362697.0,2965507.0,4207112.0,136202.0,272203.0,216894.0,300574.0,0.6260162591934204,0.0
1806787.0,3355694.0,2955692.0,4188764.0,135909.0,272662.0,215510.0,298802.0,0.5792682766914368,0.0
1799876.0,3345417.0,2944095.0,4167915.0,136799.0,271996.0,214981.0,298051.0,0.6260162591934204,0.0
1805150.0,3353582.0,2953594.0,4185005.0,136854.0,273090.0,218095.0,299601.0,0.6260162591934204,0.0
1804752.0,3354658.0,2954687.0,4184245.0,137196.0,273304.0,217322.0,298488.0,0.6260162591934204,0.0
1803361.0,3350282.0,2949814.0,4177304.0,136775.0,271580.0,215816.0,298554.0,0.6260162591934204,0.0
1809556.0,3360802.0,2961262.0,4196737.0,138487.0,274785.0,217716.0,301165.0,0.6260162591934204,0.0
1805805.0,3354400.0,2953435.0,4182371.0,137610.0,274485.0,216116.0,298785.0,0.6260162591934204,0.0
1806779.0,3355004.0,2953126.0,4183055.0,137094.0,272848.0,215228.0,297918.0,0.6260162591934204,0.0
1806871.0,3358726.0,2961656.0,4202979.0,135813.0,273151.0,216593.0,299012.0,0.6260162591934204,0.0
1818412.0,3375184.0,2977021.0,4223209.0,138570.0,274623.0,218640.0,303017.0,0.6260162591934204,0.0
1814608.0,3366724.0,2965499.0,4201602.0,138854.0,274546.0,216449.0,299386.0,0.6260162591934204,0.0
1806602.0,3353616.0,2950272.0,4172968.0,136766.0,272683.0,214962.0,296490.0,0.6260162591934204,0.0
1802505.0,3347141.0,2942894.0,4157973.0,137443.0,273784.0,215803.0,295094.0,0.6260162591934204,0.0
1804351.0,3346171.0,2940202.0,4152820.0,137811.0,273283.0,214340.0,293993.0,0.6260162591934204,0.0
1799885.0,3341100.0,2936451.0,4146212.0,137773.0,273850.0,214697.0,293852.0,0.6260162591934204,0.0
1794853.0,3331296.0,2924508.0,4127328.0,135057.0,269450.0,210575.0,288848.0,0.6260162591934204,0.0
1794853.0,3331296.0,2924508.0,4127328.0,135057.0,269450.0,210575.0,288848.0,0.6260162591934204,0.0
1797716.0,3338636.0,2934733.0,4143121.0,134732.0,270222.0,213775.0,291667.0,0.6260162591934204,0.0
1801289.0,3344287.0,2940751.0,4153305.0,136361.0,270565.0,214627.0,291600.0,0.6794425249099731,0.0
1811322.0,3361244.0,2959452.0,4186808.0,138084.0,274056.0,215658.0,296941.0,0.6260162591934204,0.0
1813877.0,3369103.0,2967584.0,4198514.0,138834.0,275440.0,218447.0,298823.0,0.6794425249099731,0.0
1815272.0,3369509.0,2967870.0,4199902.0,137612.0,274194.0,217324.0,297964.0,0.6260162591934204,0.0
1818221.0,3375113.0,2974528.0,4213933.0,138379.0,274014.0,218457.0,299955.0,0.6260162591934204,0.0
1690467.0,3139438.0,2757075.0,3891321.0,127271.0,253320.0,200658.0,275446.0,0.6260162591934204,0.0
1778034.0,3302342.0,2898746.0,4090556.0,133291.0,266323.0,210791.0,288450.0,0.6260162591934204,0.0
1783704.0,3313793.0,2910876.0,4109645.0,134931.0,269204.0,213464.0,291788.0,0.6260162591934204,0.0
1781964.0,3312530.0,2909548.0,4109439.0,133863.0,268541.0,212307.0,291111.0,0.6260162591934204,0.0
1780160.0,3307903.0,2905037.0,4100194.0,134334.0,268385.0,212102.0,290123.0,0.6260162591934204,0.0
1784249.0,3316774.0,2916547.0,4121024.0,135851.0,270944.0,214153.0,294410.0,0.6260162591934204,0.0
1781793.0,3308546.0,2907213.0,4106044.0,135403.0,269269.0,212770.0,291842.0,0.6260162591934204,0.0
1784177.0,3313330.0,2912700.0,4117108.0,135638.0,270039.0,213384.0,293506.0,0.6260162591934204,0.0
1785654.0,3317228.0,2917464.0,4124315.0,135547.0,270153.0,214678.0,294747.0,0.6260162591934204,0.0
1785817.0,3317109.0,2916798.0,4122280.0,135283.0,270309.0,213353.0,293640.0,0.6260162591934204,0.0
1789798.0,3324598.0,2925647.0,4138206.0,137062.0,272530.0,214309.0,295838.0,0.6260162591934204,0.0
1789798.0,3324598.0,2925647.0,4138206.0,137062.0,272530.0,214309.0,295838.0,0.6260162591934204,0.0
1784658.0,3316792.0,2919188.0,4127951.0,135105.0,270136.0,213310.0,294500.0,0.6260162591934204,0.0
1791147.0,3327601.0,2929203.0,4146044.0,135546.0,272866.0,215277.0,296791.0,0.5792682766914368,0.0
1782624.0,3312030.0,2912208.0,4112076.0,136193.0,269401.0,213091.0,293044.0,0.6260162591934204,0.0
1784821.0,3315750.0,2915748.0,4118250.0,134504.0,269604.0,213322.0,292627.0,0.6260162591934204,0.0
1783605.0,3314787.0,2914871.0,4115920.0,134781.0,268907.0,214509.0,293163.0,0.6260162591934204,0.0
1790632.0,3327035.0,2927437.0,4139457.0,136203.0,270947.0,215556.0,297077.0,0.6260162591934204,0.0
1790736.0,3325953.0,2925580.0,4136998.0,135222.0,271348.0,215304.0,294714.0,0.6260162591934204,0.0
1785819.0,3317376.0,2917597.0,4122684.0,135008.0,269771.0,214373.0,294521.0,0.6260162591934204,0.0
1786632.0,3318087.0,2916900.0,4120490.0,135667.0,270831.0,214633.0,294053.0,0.6260162591934204,0.0
1786366.0,3319616.0,2919295.0,4127494.0,134994.0,271613.0,215472.0,295191.0,0.6260162591934204,0.0
1785805.0,3317072.0,2917034.0,4121861.0,135647.0,269905.0,213315.0,294910.0,0.6260162591934204,0.0
1787554.0,3323175.0,2922179.0,4131502.0,134946.0,270965.0,214642.0,294012.0,0.6260162591934204,0.0
1786412.0,3320287.0,2919515.0,4127297.0,135093.0,269245.0,213679.0,294246.0,0.6260162591934204,0.0
1697844.0,3154585.0,2774069.0,3923430.0,129843.0,256833.0,204412.0,281689.0,0.6260162591934204,0.0
1791728.0,3331192.0,2932599.0,4156020.0,135986.0,272805.0,216047.0,299335.0,0.5792682766914368,0.0
1787896.0,3324415.0,2926863.0,4144110.0,135297.0,271208.0,214181.0,297297.0,0.5792682766914368,0.0
1783897.0,3322348.0,2943566.0,4188676.0,132478.0,266769.0,214930.0,300891.0,0.501354992389679,0.0
1812683.0,3371236.0,2982315.0,4243760.0,138661.0,278660.0,223495.0,311619.0,0.5792682766914368,0.0
1820505.0,3379354.0,2985739.0,4243295.0,140828.0,281677.0,223711.0,314320.0,0.501354992389679,0.0
1811255.0,3365801.0,2970471.0,4215609.0,139707.0,278679.0,223662.0,310158.0,0.6260162591934204,0.0
1810101.0,3360977.0,2964177.0,4205864.0,138693.0,277778.0,221849.0,307685.0,0.5792682766914368,0.0
1720925.0,3196662.0,2818682.0,4001736.0,132535.0,265665.0,209259.0,293643.0,0.501354992389679,0.0
1791803.0,3331767.0,2934531.0,4160126.0,137552.0,275712.0,217760.0,304062.0,0.5792682766914368,0.0
1794718.0,3337682.0,2943742.0,4174761.0,137327.0,274779.0,219407.0,304972.0,0.5792682766914368,0.0
1799678.0,3346790.0,2954071.0,4194584.0,138302.0,275814.0,221876.0,306925.0,0.6260162591934204,0.0
1799678.0,3346790.0,2954071.0,4194584.0,138302.0,275814.0,221876.0,306925.0,0.6260162591934204,0.0
1800861.0,3350994.0,2956832.0,4196456.0,137003.0,275470.0,220667.0,303920.0,0.6260162591934204,0.0
1803506.0,3352627.0,2958265.0,4197164.0,137370.0,274248.0,219859.0,304207.0,0.6260162591934204,0.0
1801327.0,3347970.0,2951411.0,4182960.0,136760.0,272007.0,217586.0,302163.0,0.6260162591934204,0.0
1799988.0,3347172.0,2949216.0,4177034.0,136111.0,273149.0,218010.0,299830.0,0.6260162591934204,0.0
1710519.0,3179461.0,2802300.0,3969169.0,128736.0,258674.0,207123.0,283909.0,0.6260162591934204,0.0
1793578.0,3335785.0,2936302.0,4157581.0,133832.0,270983.0,214923.0,296838.0,0.5380200743675232,0.0
1794043.0,3336671.0,2937590.0,4157696.0,135615.0,271249.0,216084.0,296899.0,0.6260162591934204,0.0
1799378.0,3347488.0,2951558.0,4184109.0,135846.0,272744.0,217004.0,300155.0,0.6260162591934204,0.0
1798202.0,3343945.0,2948470.0,4177430.0,135906.0,272039.0,216774.0,298634.0,0.6260162591934204,0.0
1798682.0,3343015.0,2945865.0,4176276.0,136264.0,272597.0,217258.0,298662.0,0.6260162591934204,0.0
1798867.0,3345880.0,2949048.0,4182877.0,136082.0,271872.0,216987.0,299994.0,0.6260162591934204,0.0
1793646.0,3335298.0,2937755.0,4160926.0,133729.0,270498.0,214549.0,295162.0,0.6260162591934204,0.0
1789091.0,3329180.0,2932712.0,4151034.0,134406.0,268900.0,212892.0,295164.0,0.5792682766914368,0.0
1795229.0,3337027.0,2941554.0,4168950.0,135088.0,270526.0,215852.0,297912.0,0.6260162591934204,0.0
1797108.0,3340694.0,2945466.0,4175245.0,136254.0,272435.0,216605.0,298910.0,0.6260162591934204,0.0
1705623.0,3171523.0,2795094.0,3962068.0,128524.0,257946.0,204563.0,281712.0,0.6260162591934204,0.0
1798298.0,3346344.0,2951487.0,4185401.0,135743.0,271916.0,217708.0,300126.0,0.6260162591934204,0.0
1799321.0,3347529.0,2951560.0,4187337.0,136664.0,273812.0,216802.0,300220.0,0.6260162591934204,0.0
1796534.0,3342438.0,2947209.0,4178024.0,135946.0,271588.0,215558.0,298217.0,0.6260162591934204,0.0
1799109.0,3347172.0,2952161.0,4187501.0,135358.0,273117.0,217004.0,298485.0,0.6260162591934204,0.0
1804627.0,3356205.0,2961107.0,4204259.0,137911.0,275301.0,219138.0,302657.0,0.6260162591934204,0.0
1804014.0,3353775.0,2961612.0,4204275.0,137411.0,273908.0,218857.0,302824.0,0.6260162591934204,0.0
1806099.0,3358755.0,2966175.0,4213492.0,136784.0,275389.0,219750.0,304374.0,0.5792682766914368,0.0
1804931.0,3355472.0,2961363.0,4206405.0,137768.0,274442.0,219320.0,303430.0,0.6260162591934204,0.0
1805205.0,3354424.0,2961217.0,4204834.0,137476.0,274969.0,219261.0,303195.0,0.6260162591934204,0.0
1712411.0,3185163.0,2809810.0,3989727.0,130273.0,260575.0,207340.0,287927.0,0.6260162591934204,0.0
1800657.0,3347031.0,2952280.0,4189130.0,137216.0,273211.0,216655.0,300604.0,0.6260162591934204,0.0
1803811.0,3354303.0,2960962.0,4204105.0,136463.0,274938.0,219752.0,303260.0,0.6260162591934204,0.0
1709458.0,3179308.0,2803406.0,3976458.0,130056.0,260848.0,206560.0,286803.0,0.5792682766914368,0.0
1799601.0,3345048.0,2949265.0,4184963.0,137100.0,274209.0,218893.0,302468.0,0.6260162591934204,0.0
1795271.0,3338872.0,2942970.0,4173315.0,136333.0,272113.0,217865.0,300539.0,0.6260162591934204,0.0
1790989.0,3332743.0,2936536.0,4160515.0,135414.0,271705.0,215787.0,298638.0,0.5792682766914368,0.0
1790160.0,3329552.0,2931931.0,4158182.0,134384.0,271660.0,215227.0,298047.0,0.5380200743675232,0.0
1788880.0,3327545.0,2931967.0,4151659.0,133578.0,271392.0,214939.0,296953.0,0.5380200743675232,0.0
1794623.0,3336405.0,2940802.0,4172277.0,135690.0,272290.0,217033.0,300095.0,0.6260162591934204,0.0
1793913.0,3335922.0,2940926.0,4170946.0,135874.0,271823.0,216557.0,299315.0,0.6260162591934204,0.0
1791592.0,3332639.0,2935940.0,4160458.0,135827.0,270699.0,215530.0,297858.0,0.6260162591934204,0.0
1792306.0,3332370.0,2937509.0,4165017.0,135118.0,271316.0,215387.0,298115.0,0.5792682766914368,0.0
1695149.0,3154886.0,2777233.0,3934085.0,125762.0,256191.0,203643.0,280008.0,0.5792682766914368,0.0
1696327.0,3155617.0,2779370.0,3937627.0,127.0,256191.0,203643.0,280008.0,0.5792682766914368,0.0
1788568.0,3322385.0,2920446.0,4124775.0,136947.0,271487.0,214456.0,293008.0,0.6794425249099731,0.0
1793046.0,3330762.0,2930435.0,4142166.0,137464.0,273759.0,216729.0,294203.0,0.6794425249099731,0.0
1795781.0,3332807.0,2932145.0,4147629.0,137742.0,273177.0,216534.0,295038.0,0.6794425249099731,0.0
1795781.0,3332807.0,2932145.0,4147629.0,137742.0,273177.0,216534.0,295038.0,0.6794425249099731,0.0
1793148.0,3330606.0,2930496.0,4143289.0,136812.0,272622.0,215978.0,294722.0,0.6260162591934204,0.0
1797533.0,3336966.0,2938078.0,4155657.0,137558.0,273430.0,216721.0,296548.0,0.6260162591934204,0.0
1799264.0,3340439.0,2939444.0,4161308.0,139124.0,273813.0,217174.0,297248.0,0.6794425249099731,0.0
1799745.0,3340825.0,2940882.0,4163076.0,137930.0,273971.0,218097.0,298553.0,0.6260162591934204,0.0
1704938.0,3165697.0,2784921.0,3937017.0,131207.0,259967.0,205932.0,281446.0,0.6794425249099731,0.0
1792550.0,3329399.0,2927685.0,4137763.0,137302.0,272987.0,215706.0,294662.0,0.6260162591934204,0.0
1794367.0,3333710.0,2933942.0,4148757.0,137312.0,274597.0,217136.0,296891.0,0.6260162591934204,0.0
1793098.0,3329396.0,2928885.0,4140132.0,136868.0,273912.0,217538.0,295879.0,0.6260162591934204,0.0
1792540.0,3328668.0,2927351.0,4136722.0,138325.0,274647.0,217946.0,295693.0,0.6794425249099731,0.0
1791934.0,3326259.0,2925114.0,4133712.0,137965.0,272981.0,216564.0,296530.0,0.6260162591934204,0.0
1786501.0,3316319.0,2914485.0,4115358.0,137074.0,272144.0,215248.0,294492.0,0.6260162591934204,0.0
1788843.0,3320437.0,2919833.0,4124216.0,136120.0,273234.0,215926.0,294475.0,0.6260162591934204,0.0
1786075.0,3316443.0,2914683.0,4114396.0,137473.0,270950.0,213994.0,293602.0,0.6794425249099731,0.0
1792560.0,3328005.0,2928909.0,4139863.0,136279.0,273202.0,216268.0,296361.0,0.6260162591934204,0.0
1793283.0,3329363.0,2928232.0,4141109.0,138281.0,273061.0,216102.0,296967.0,0.6260162591934204,0.0
1800300.0,3341325.0,2941526.0,4163767.0,138567.0,276002.0,218353.0,299096.0,0.6260162591934204,0.0
1800118.0,3340455.0,2941033.0,4162388.0,136780.0,275141.0,218443.0,298322.0,0.6260162591934204,0.0
1796514.0,3334808.0,2935937.0,4152704.0,137654.0,274020.0,216102.0,296768.0,0.6260162591934204,0.0
1799087.0,3340388.0,2940628.0,4161281.0,138142.0,273648.0,217196.0,297395.0,0.6794425249099731,0.0
1801142.0,3343235.0,2944766.0,4167749.0,138653.0,276520.0,218620.0,299510.0,0.6260162591934204,0.0
1797610.0,3337358.0,2936125.0,4153393.0,137440.0,274305.0,217640.0,298369.0,0.6260162591934204,0.0
1797978.0,3340004.0,2940099.0,4159446.0,138362.0,276694.0,219526.0,300456.0,0.6260162591934204,0.0
1705885.0,3166500.0,2785979.0,3940696.0,131661.0,261657.0,207037.0,283566.0,0.6260162591934204,0.0
1788144.0,3321522.0,2919614.0,4123781.0,138010.0,273466.0,215675.0,294370.0,0.6794425249099731,0.0
1790655.0,3322762.0,2920578.0,4127299.0,138550.0,272250.0,215281.0,295732.0,0.6794425249099731,0.0
1787780.0,3317855.0,2915611.0,4118759.0,137230.0,272738.0,215421.0,293239.0,0.6794425249099731,0.0
1785164.0,3314351.0,2911547.0,4110800.0,136122.0,270070.0,213836.0,291689.0,0.6794425249099731,0.0
1791864.0,3327286.0,2925253.0,4134800.0,137177.0,273493.0,216398.0,295632.0,0.6260162591934204,0.0
1793201.0,3328277.0,2927422.0,4138492.0,136841.0,273464.0,216018.0,296332.0,0.6260162591934204,0.0
1798923.0,3339676.0,2939109.0,4157240.0,138496.0,276778.0,218523.0,298301.0,0.6260162591934204,0.0
1799967.0,3340492.0,2940966.0,4159655.0,138898.0,275064.0,218801.0,297996.0,0.6794425249099731,0.0
1797186.0,3336021.0,2935951.0,4150673.0,137457.0,274706.0,216929.0,297432.0,0.6260162591934204,0.0
1799672.0,3340923.0,2940370.0,4161889.0,138399.0,276168.0,218679.0,299850.0,0.6260162591934204,0.0
1800411.0,3344348.0,2944289.0,4166796.0,137901.0,276115.0,219078.0,299505.0,0.6260162591934204,0.0
1799578.0,3341522.0,2941400.0,4163465.0,138795.0,276200.0,219687.0,299558.0,0.6794425249099731,0.0
1801588.0,3343949.0,2944021.0,4165904.0,139356.0,276757.0,219415.0,300511.0,0.6260162591934204,0.0
1796550.0,3335289.0,2933632.0,4147076.0,137707.0,275011.0,217326.0,298199.0,0.6260162591934204,0.0
1790358.0,3323755.0,2920845.0,4124342.0,137519.0,273561.0,215275.0,293998.0,0.6260162591934204,0.0
1788220.0,3320459.0,2917977.0,4120940.0,136919.0,272269.0,215294.0,293654.0,0.6260162591934204,0.0
1789561.0,3320110.0,2917874.0,4120318.0,136582.0,273276.0,214830.0,293149.0,0.6260162591934204,0.0
1792853.0,3327946.0,2926169.0,4132853.0,137573.0,274260.0,217415.0,295515.0,0.6794425249099731,0.0
1795672.0,3333294.0,2932097.0,4142792.0,137392.0,274969.0,218374.0,297926.0,0.6260162591934204,0.0
1792433.0,3323809.0,2921594.0,4125558.0,137196.0,272649.0,216339.0,294937.0,0.6260162591934204,0.0
1791238.0,3325303.0,2922058.0,4126679.0,135609.0,272208.0,215544.0,293869.0,0.6260162591934204,0.0
1792669.0,3326523.0,2923180.0,4128272.0,136924.0,271938.0,215126.0,293038.0,0.6794425249099731,0.0
1789942.0,3320972.0,2918128.0,4118799.0,136348.0,271503.0,213485.0,291247.0,0.6260162591934204,0.0
1793874.0,3330329.0,2929467.0,4136348.0,137773.0,272795.0,217124.0,294215.0,0.7410881519317627,0.0
1797736.0,3334895.0,2933230.0,4145232.0,138718.0,273140.0,216762.0,296022.0,0.6794425249099731,0.0
1803823.0,3346437.0,2945076.0,4166056.0,139735.0,277706.0,219249.0,299469.0,0.6260162591934204,0.0
1804104.0,3345899.0,2944844.0,4164948.0,140404.0,276187.0,218211.0,298085.0,0.6794425249099731,0.0
1804104.0,3345899.0,2944844.0,4164948.0,140404.0,276187.0,218211.0,298085.0,0.6794425249099731,0.0
1801036.0,3339948.0,2938708.0,4155802.0,139543.0,274510.0,217195.0,297551.0,0.6794425249099731,0.0
1798515.0,3335766.0,2933856.0,4148379.0,138017.0,276083.0,218264.0,295945.0,0.6260162591934204,0.0
1791641.0,3324815.0,2921024.0,4123011.0,139125.0,272445.0,215845.0,294312.0,0.7410881519317627,0.0
1702956.0,3157764.0,2776314.0,3920575.0,131279.0,259364.0,205291.0,280335.0,0.6794425249099731,0.0
1791165.0,3322998.0,2919829.0,4122757.0,138072.0,273204.0,215684.0,293979.0,0.6794425249099731,0.0
1793934.0,3326985.0,2924802.0,4129608.0,138498.0,274165.0,217215.0,295296.0,0.6794425249099731,0.0
1797707.0,3336891.0,2935153.0,4148321.0,138535.0,276003.0,218713.0,297059.0,0.6794425249099731,0.0
1797021.0,3334422.0,2934596.0,4147414.0,138415.0,275415.0,218185.0,297043.0,0.6794425249099731,0.0
1798054.0,3335499.0,2934595.0,4144131.0,138497.0,275384.0,218712.0,296677.0,0.6794425249099731,0.0
1797822.0,3336502.0,2935072.0,4147455.0,139301.0,276351.0,217666.0,297088.0,0.6794425249099731,0.0
1797004.0,3333557.0,2933309.0,4145558.0,139348.0,275249.0,217625.0,296102.0,0.6794425249099731,0.0
1796132.0,3332288.0,2930601.0,4140058.0,137828.0,275063.0,216868.0,295727.0,0.6260162591934204,0.0
1800134.0,3340224.0,2939742.0,4155998.0,139070.0,276088.0,218579.0,298506.0,0.6260162591934204,0.0
1804382.0,3349811.0,2950154.0,4173046.0,139540.0,278499.0,220588.0,300363.0,0.6260162591934204,0.0
1810382.0,3359836.0,2961173.0,4192060.0,140603.0,280665.0,222573.0,302788.0,0.6794425249099731,0.0
1813748.0,3364259.0,2965549.0,4199603.0,141275.0,281687.0,224449.0,305130.0,0.6794425249099731,0.0
1813298.0,3363800.0,2963980.0,4196379.0,141253.0,281183.0,223080.0,304371.0,0.6260162591934204,0.0
1814043.0,3362483.0,2961772.0,4195017.0,142273.0,281905.0,222952.0,305629.0,0.6260162591934204,0.0
1810405.0,3357148.0,2956574.0,4181728.0,140830.0,280240.0,221797.0,301806.0,0.6794425249099731,0.0
1801852.0,3343278.0,2940288.0,4156636.0,139616.0,277159.0,219278.0,298614.0,0.6794425249099731,0.0
1796500.0,3332867.0,2928819.0,4133285.0,138606.0,276560.0,217907.0,295057.0,0.6794425249099731,0.0
1803253.0,3344373.0,2943008.0,4159494.0,140668.0,278370.0,219619.0,299757.0,0.6794425249099731,0.0
1803035.0,3344656.0,2942768.0,4159240.0,140421.0,278826.0,219802.0,300046.0,0.6260162591934204,0.0
1787963.0,3326084.0,2927305.0,4143641.0,135522.0,271906.0,215036.0,297435.0,0.5792682766914368,0.0
1785824.0,3322774.0,2925603.0,4140250.0,134544.0,271574.0,216355.0,297561.0,0.5792682766914368,0.0
1785256.0,3321177.0,2923469.0,4134509.0,135947.0,270872.0,214373.0,296315.0,0.6260162591934204,0.0
1789332.0,3330121.0,2932306.0,4151260.0,136187.0,271695.0,217748.0,300241.0,0.6260162591934204,0.0
1785946.0,3323155.0,2924714.0,4140284.0,133945.0,271428.0,216682.0,298178.0,0.5792682766914368,0.0
1788430.0,3325370.0,2927785.0,4143183.0,135622.0,271414.0,215970.0,297311.0,0.6260162591934204,0.0
1787974.0,3326251.0,2929425.0,4148295.0,136058.0,270754.0,216162.0,298882.0,0.6260162591934204,0.0
1783193.0,3317317.0,2920244.0,4131197.0,134697.0,270381.0,214718.0,295754.0,0.6260162591934204,0.0
1783137.0,3318862.0,2921559.0,4132718.0,134745.0,270970.0,214296.0,296055.0,0.5792682766914368,0.0
1780754.0,3314007.0,2917645.0,4129432.0,134373.0,268749.0,215687.0,295344.0,0.6260162591934204,0.0
1774979.0,3301784.0,2903403.0,4103029.0,131933.0,266314.0,211532.0,291618.0,0.5792682766914368,0.0
1774344.0,3302297.0,2903978.0,4104276.0,134056.0,266769.0,212545.0,292721.0,0.6260162591934204,0.0
1773272.0,3300956.0,2901528.0,4100497.0,132206.0,265522.0,210794.0,291095.0,0.5792682766914368,0.0
1776996.0,3308340.0,2910487.0,4116574.0,132097.0,267092.0,212095.0,292371.0,0.5792682766914368,0.0
1775508.0,3303918.0,2905522.0,4106940.0,132881.0,265795.0,211255.0,291833.0,0.6260162591934204,0.0
1772842.0,3299331.0,2901166.0,4100639.0,131880.0,265281.0,210871.0,290940.0,0.5792682766914368,0.0
1784851.0,3322679.0,2925298.0,4142375.0,132967.0,269816.0,213809.0,296192.0,0.5380200743675232,0.0
1791704.0,3334506.0,2939087.0,4167694.0,135547.0,272833.0,217410.0,301403.0,0.5792682766914368,0.0
1789230.0,3331439.0,2935782.0,4161963.0,134987.0,271869.0,217096.0,301604.0,0.5380200743675232,0.0
1788210.0,3329244.0,2934232.0,4157936.0,135286.0,270848.0,216837.0,300157.0,0.6260162591934204,0.0
1788210.0,3329244.0,2934232.0,4157936.0,135286.0,270848.0,216837.0,300157.0,0.6260162591934204,0.0
1790101.0,3332674.0,2937944.0,4163740.0,135616.0,272196.0,216305.0,300728.0,0.5792682766914368,0.0
1794436.0,3340357.0,2948562.0,4182214.0,135903.0,273613.0,218958.0,304165.0,0.5792682766914368,0.0
1796636.0,3343814.0,2950090.0,4189150.0,136545.0,275099.0,220171.0,305967.0,0.5380200743675232,0.0
1792778.0,3337578.0,2943901.0,4175270.0,136737.0,273548.0,218428.0,304384.0,0.5792682766914368,0.0
1795677.0,3341262.0,2947351.0,4183986.0,136446.0,273280.0,218334.0,304340.0,0.5792682766914368,0.0
1798588.0,3346693.0,2952820.0,4193173.0,137175.0,275157.0,220880.0,306329.0,0.6260162591934204,0.0
1794032.0,3338469.0,2943483.0,4177774.0,136415.0,273936.0,218790.0,304533.0,0.5792682766914368,0.0
1793943.0,3338690.0,2944635.0,4178494.0,134774.0,272408.0,217231.0,304623.0,0.4685494303703308,0.0
1706087.0,3175771.0,2801655.0,3977429.0,128918.0,259988.0,208926.0,290031.0,0.5380200743675232,0.0
1792433.0,3337090.0,2941977.0,4175372.0,135268.0,271730.0,217612.0,302162.0,0.5792682766914368,0.0
1794629.0,3340843.0,2947133.0,4182909.0,135068.0,272948.0,218406.0,303674.0,0.5380200743675232,0.0
1797374.0,3344717.0,2953696.0,4194337.0,135315.0,273590.0,219223.0,303915.0,0.5380200743675232,0.0
1797089.0,3343291.0,2951880.0,4189351.0,135350.0,273063.0,218175.0,303411.0,0.5380200743675232,0.0
1799018.0,3348308.0,2957350.0,4201737.0,134344.0,272781.0,219536.0,305798.0,0.501354992389679,0.0
1794576.0,3340811.0,2948152.0,4187404.0,134706.0,273396.0,217276.0,304019.0,0.4685494303703308,0.0
1793859.0,3339768.0,2944967.0,4181408.0,135353.0,272904.0,217963.0,303786.0,0.5380200743675232,0.0
1790068.0,3333947.0,2938919.0,4170891.0,134955.0,271297.0,216485.0,301213.0,0.5792682766914368,0.0
1787207.0,3328258.0,2932579.0,4160284.0,134364.0,271159.0,216591.0,301563.0,0.501354992389679,0.0
1791647.0,3334041.0,2939942.0,4172980.0,134556.0,272472.0,217295.0,303275.0,0.501354992389679,0.0
1787819.0,3328893.0,2934139.0,4162615.0,134168.0,271051.0,217659.0,302703.0,0.5380200743675232,0.0
1783756.0,3319735.0,2923195.0,4142466.0,133948.0,270479.0,216075.0,300544.0,0.501354992389679,0.0
1785700.0,3323359.0,2930143.0,4155208.0,134891.0,270149.0,217471.0,301494.0,0.6260162591934204,0.0
1780794.0,3315000.0,2919606.0,4135837.0,133550.0,269512.0,215182.0,298761.0,0.5380200743675232,0.0
1780179.0,3314779.0,2918851.0,4135661.0,134509.0,269518.0,214749.0,297498.0,0.6260162591934204,0.0
1784920.0,3321175.0,2926222.0,4147903.0,133534.0,269708.0,215285.0,299476.0,0.501354992389679,0.0
1784920.0,3321175.0,2926222.0,4147903.0,133534.0,269708.0,215285.0,299476.0,0.501354992389679,0.0
1784041.0,3322541.0,2927351.0,4149830.0,133508.0,269402.0,216375.0,299826.0,0.5380200743675232,0.0
1784773.0,3319485.0,2924598.0,4146457.0,134551.0,269309.0,215540.0,299803.0,0.5792682766914368,0.0
1780409.0,3313190.0,2916457.0,4131231.0,133117.0,269552.0,213215.0,297591.0,0.4685494303703308,0.0
1782360.0,3318195.0,2924947.0,4143385.0,134087.0,269914.0,215322.0,298594.0,0.5792682766914368,0.0
1778202.0,3310199.0,2914627.0,4127627.0,133715.0,267811.0,213899.0,296946.0,0.5792682766914368,0.0
1779061.0,3311655.0,2915884.0,4127656.0,132903.0,268432.0,214476.0,297148.0,0.5380200743675232,0.0
1783539.0,3319332.0,2924011.0,4142521.0,132975.0,269102.0,215636.0,299492.0,0.501354992389679,0.0
1778465.0,3310241.0,2913409.0,4124160.0,133418.0,268821.0,214487.0,298519.0,0.501354992389679,0.0
1779377.0,3312663.0,2913883.0,4126429.0,133233.0,268895.0,214317.0,297294.0,0.5380200743675232,0.0
1778806.0,3312065.0,2913414.0,4124965.0,133566.0,268429.0,214905.0,297127.0,0.5792682766914368,0.0
1774453.0,3301284.0,2902798.0,4101979.0,132736.0,267477.0,212696.0,292488.0,0.5792682766914368,0.0
1775928.0,3305961.0,2907598.0,4112080.0,132348.0,268119.0,213546.0,296022.0,0.501354992389679,0.0
1777021.0,3304696.0,2905867.0,4111408.0,133325.0,267387.0,212509.0,293627.0,0.5792682766914368,0.0
1774416.0,3302336.0,2904011.0,4105559.0,132554.0,266440.0,212630.0,295182.0,0.5380200743675232,0.0
1775664.0,3304287.0,2906101.0,4108668.0,132704.0,267601.0,213603.0,294242.0,0.5792682766914368,0.0
1687457.0,3139026.0,2759132.0,3901055.0,126081.0,254133.0,201699.0,278340.0,0.5792682766914368,0.0
1780924.0,3311876.0,2915236.0,4124600.0,133441.0,267904.0,213575.0,295448.0,0.5792682766914368,0.0
1777110.0,3307302.0,2909682.0,4116054.0,132607.0,266154.0,212760.0,293208.0,0.6260162591934204,0.0
1774884.0,3302411.0,2903231.0,4105419.0,132005.0,266644.0,212001.0,293102.0,0.5380200743675232,0.0
1777615.0,3306345.0,2909789.0,4115985.0,132424.0,266505.0,212482.0,293988.0,0.5792682766914368,0.0
1778765.0,3309877.0,2911972.0,4120391.0,133751.0,268079.0,213067.0,293884.0,0.6260162591934204,0.0
1776167.0,3305840.0,2909803.0,4116761.0,133487.0,267985.0,212874.0,294033.0,0.5792682766914368,0.0
1779957.0,3313516.0,2918787.0,4134003.0,132887.0,268068.0,214510.0,295228.0,0.6260162591934204,0.0
1777506.0,3308644.0,2912602.0,4123676.0,133104.0,268530.0,212628.0,295602.0,0.501354992389679,0.0
1777506.0,3308644.0,2912602.0,4123676.0,133104.0,268530.0,212628.0,295602.0,0.501354992389679,0.0
1781474.0,3316480.0,2918549.0,4135547.0,134409.0,268428.0,212992.0,295593.0,0.6260162591934204,0.0
1790520.0,3333486.0,2940108.0,4169898.0,135040.0,270296.0,217664.0,300018.0,0.6260162591934204,0.0
1795461.0,3341794.0,2949280.0,4187782.0,135631.0,272676.0,218202.0,302871.0,0.5792682766914368,0.0
1788303.0,3328944.0,2935784.0,4163810.0,134175.0,271333.0,217207.0,301166.0,0.5380200743675232,0.0
1787506.0,3327933.0,2933720.0,4159238.0,134944.0,271235.0,216160.0,300348.0,0.5792682766914368,0.0
1789102.0,3330971.0,2937287.0,4166833.0,134171.0,270626.0,217456.0,300459.0,0.5792682766914368,0.0
1761061.0,3276919.0,2881157.0,4071538.0,131143.0,263488.0,210555.0,290088.0,0.6260162591934204,0.0
1755854.0,3267531.0,2869677.0,4052883.0,130264.0,262116.0,207933.0,287875.0,0.5380200743675232,0.0
1759381.0,3273814.0,2877139.0,4064560.0,130818.0,261810.0,208391.0,289575.0,0.5792682766914368,0.0
1764616.0,3283617.0,2887173.0,4082247.0,131042.0,263532.0,210465.0,291562.0,0.5792682766914368,0.0
1764448.0,3284027.0,2884957.0,4073787.0,131124.0,264604.0,210379.0,289789.0,0.5792682766914368,0.0
1772268.0,3298848.0,2900133.0,4098347.0,132311.0,266392.0,211513.0,290965.0,0.6260162591934204,0.0
1772268.0,3298848.0,2900133.0,4098347.0,132311.0,266392.0,211513.0,290965.0,0.6260162591934204,0.0
1775388.0,3302915.0,2903623.0,4103145.0,132197.0,265968.0,211079.0,291911.0,0.5792682766914368,0.0
1776867.0,3306033.0,2906565.0,4106233.0,131629.0,265750.0,211360.0,291185.0,0.5792682766914368,0.0
1777125.0,3308653.0,2909096.0,4107811.0,131564.0,266645.0,211584.0,290662.0,0.5792682766914368,0.0
1772764.0,3297536.0,2897857.0,4087842.0,131038.0,264388.0,210852.0,288462.0,0.6260162591934204,0.0
1772079.0,3296030.0,2895087.0,4084825.0,132461.0,264853.0,209704.0,288666.0,0.6260162591934204,0.0
1775434.0,3302289.0,2902559.0,4099882.0,132613.0,266551.0,211953.0,291910.0,0.5792682766914368,0.0
1770430.0,3294646.0,2894362.0,4084394.0,131028.0,263804.0,209383.0,288741.0,0.5792682766914368,0.0
1770360.0,3294277.0,2893255.0,4080134.0,130675.0,263894.0,209605.0,288187.0,0.5792682766914368,0.0
1687600.0,3140895.0,2760950.0,3899672.0,124518.0,251093.0,200217.0,276523.0,0.5380200743675232,0.0
1774458.0,3300354.0,2900453.0,4093541.0,131180.0,263502.0,209860.0,291049.0,0.5380200743675232,0.0
1774433.0,3300808.0,2899887.0,4090423.0,131452.0,263317.0,210005.0,288850.0,0.6260162591934204,0.0
1780971.0,3313354.0,2911990.0,4111322.0,132750.0,264237.0,210510.0,291176.0,0.6260162591934204,0.0
1781650.0,3316098.0,2915741.0,4118465.0,131653.0,265963.0,211667.0,292163.0,0.5380200743675232,0.0
1784693.0,3319642.0,2918334.0,4121693.0,132408.0,266926.0,212165.0,292222.0,0.5792682766914368,0.0
1788521.0,3325999.0,2928595.0,4139269.0,133127.0,267579.0,213570.0,295823.0,0.5792682766914368,0.0
1786782.0,3323459.0,2925403.0,4137170.0,133268.0,268448.0,214382.0,295631.0,0.5792682766914368,0.0
1786782.0,3323459.0,2925403.0,4137170.0,133268.0,268448.0,214382.0,295631.0,0.5792682766914368,0.0
1782592.0,3316033.0,2916916.0,4121788.0,132979.0,267028.0,213141.0,294076.0,0.5792682766914368,0.0
1778162.0,3307341.0,2908137.0,4109190.0,131950.0,265276.0,210712.0,291871.0,0.5380200743675232,0.0
1774090.0,3299731.0,2899280.0,4094600.0,131383.0,265152.0,209824.0,289812.0,0.5380200743675232,0.0
1769933.0,3294124.0,2895528.0,4087645.0,131228.0,264149.0,210162.0,288209.0,0.6260162591934204,0.0
1773177.0,3298322.0,2898438.0,4091243.0,131990.0,265254.0,210300.0,290091.0,0.5792682766914368,0.0
1782173.0,3315053.0,2918291.0,4126467.0,133046.0,268333.0,212697.0,294194.0,0.5380200743675232,0.0
1788803.0,3329166.0,2932890.0,4151766.0,133921.0,270359.0,215891.0,297078.0,0.5792682766914368,0.0
1788803.0,3329166.0,2932890.0,4151766.0,133921.0,270359.0,215891.0,297078.0,0.5792682766914368,0.0
1790924.0,3330376.0,2935172.0,4156977.0,134393.0,269555.0,216021.0,298630.0,0.6260162591934204,0.0
1789425.0,3326871.0,2931469.0,4151161.0,134182.0,271416.0,215370.0,297984.0,0.5380200743675232,0.0
1788531.0,3324884.0,2927861.0,4146164.0,134437.0,270128.0,215438.0,296442.0,0.6260162591934204,0.0
1790386.0,3327961.0,2933254.0,4154126.0,135045.0,271733.0,216016.0,298781.0,0.5792682766914368,0.0
1786220.0,3319754.0,2923493.0,4135877.0,134220.0,269445.0,216221.0,296349.0,0.6260162591934204,0.0
1787759.0,3322020.0,2925560.0,4138818.0,135018.0,270619.0,215972.0,297429.0,0.6260162591934204,0.0
1783779.0,3316872.0,2918843.0,4128725.0,133381.0,268306.0,214547.0,296561.0,0.5792682766914368,0.0
1779480.0,3308960.0,2909973.0,4112327.0,133375.0,267881.0,213236.0,294488.0,0.5792682766914368,0.0
1782211.0,3311849.0,2913540.0,4119162.0,134101.0,268046.0,213286.0,293879.0,0.6260162591934204,0.0
1777877.0,3304087.0,2905929.0,4103294.0,132723.0,265820.0,210753.0,291943.0,0.5792682766914368,0.0
1780360.0,3308331.0,2910535.0,4113034.0,133054.0,266686.0,212422.0,292466.0,0.6260162591934204,0.0
1775911.0,3299679.0,2899801.0,4093901.0,133119.0,264838.0,208941.0,288828.0,0.6260162591934204,0.0
1778306.0,3305826.0,2907447.0,4104461.0,133338.0,266609.0,211368.0,290420.0,0.6260162591934204,0.0
1776382.0,3303574.0,2904145.0,4099479.0,131244.0,265292.0,210339.0,288735.0,0.5792682766914368,0.0
1783077.0,3314493.0,2916662.0,4122731.0,133168.0,267681.0,212572.0,291510.0,0.6260162591934204,0.0
1787344.0,3322520.0,2925469.0,4134769.0,134006.0,269228.0,213298.0,293825.0,0.5792682766914368,0.0
1786830.0,3319418.0,2921023.0,4125685.0,134544.0,268133.0,212161.0,291410.0,0.6260162591934204,0.0
1791037.0,3328470.0,2928815.0,4137693.0,133441.0,268109.0,213889.0,292477.0,0.6260162591934204,0.0
1794148.0,3331054.0,2930075.0,4142584.0,134553.0,269053.0,213143.0,293600.0,0.6260162591934204,0.0
1801175.0,3345469.0,2946913.0,4169292.0,135584.0,271963.0,215469.0,297381.0,0.5792682766914368,0.0
1804553.0,3348997.0,2947228.0,4163022.0,137315.0,273083.0,216044.0,297869.0,0.6260162591934204,0.0
1798950.0,3338662.0,2936261.0,4142562.0,136161.0,271473.0,214593.0,294413.0,0.6260162591934204,0.0
1796468.0,3334951.0,2930468.0,4130595.0,134934.0,269498.0,213917.0,293536.0,0.6260162591934204,0.0
1798459.0,3337374.0,2933059.0,4136708.0,135882.0,271482.0,215532.0,294619.0,0.6260162591934204,0.0
1795097.0,3333134.0,2928967.0,4126999.0,134631.0,269866.0,213569.0,291971.0,0.6260162591934204,0.0
1795097.0,3333134.0,2928967.0,4126999.0,134631.0,269866.0,213569.0,291971.0,0.6260162591934204,0.0
1801273.0,3342500.0,2938279.0,4147603.0,137167.0,272442.0,215821.0,295721.0,0.6260162591934204,0.0
1798349.0,3337620.0,2934014.0,4141312.0,136867.0,271689.0,214916.0,295608.0,0.6260162591934204,0.0
1708088.0,3170274.0,2789492.0,3939143.0,129965.0,257406.0,205472.0,281999.0,0.6260162591934204,0.0
1794672.0,3329452.0,2927750.0,4131599.0,135768.0,271339.0,213983.0,294610.0,0.6260162591934204,0.0
1794406.0,3330474.0,2928802.0,4134877.0,135076.0,271376.0,215167.0,295788.0,0.5792682766914368,0.0
1787497.0,3318321.0,2918288.0,4120666.0,135050.0,270284.0,214437.0,295552.0,0.6260162591934204,0.0
1700105.0,3155100.0,2775174.0,3920857.0,128304.0,257955.0,205441.0,283540.0,0.5380200743675232,0.0
1779489.0,3303023.0,2900852.0,4090466.0,134919.0,269713.0,213270.0,294380.0,0.5792682766914368,0.0
1771258.0,3288411.0,2884263.0,4060970.0,133082.0,268919.0,212432.0,290872.0,0.5792682766914368,0.0
1776362.0,3299193.0,2896126.0,4081665.0,134879.0,269824.0,213406.0,293386.0,0.6260162591934204,0.0
1780512.0,3305962.0,2905224.0,4093658.0,135009.0,268455.0,212728.0,292261.0,0.6260162591934204,0.0
1787018.0,3315990.0,2914146.0,4107036.0,134974.0,269504.0,213778.0,292532.0,0.6260162591934204,0.0
1798312.0,3339693.0,2942236.0,4156446.0,135451.0,271743.0,216766.0,296988.0,0.6260162591934204,0.0
1797071.0,3335931.0,2934771.0,4139884.0,135878.0,270989.0,214795.0,295913.0,0.6260162591934204,0.0
1799367.0,3340811.0,2938691.0,4148405.0,136834.0,271012.0,215422.0,296343.0,0.6260162591934204,0.0
1799039.0,3341331.0,2938365.0,4146840.0,135937.0,272335.0,214950.0,294414.0,0.6260162591934204,0.0
1795934.0,3332952.0,2929066.0,4128652.0,135745.0,270042.0,213433.0,292575.0,0.6260162591934204,0.0
1794750.0,3332533.0,2929318.0,4128029.0,135595.0,270641.0,214738.0,293217.0,0.6260162591934204,0.0
1794294.0,3326381.0,2917876.0,4103968.0,136809.0,271663.0,214112.0,289066.0,0.6794425249099731,0.0
1791886.0,3322039.0,2912230.0,4094793.0,136815.0,271941.0,214321.0,288859.0,0.6794425249099731,0.0
1784743.0,3310020.0,2899622.0,4070277.0,135888.0,269392.0,211625.0,285661.0,0.6794425249099731,0.0
1785636.0,3311906.0,2903071.0,4079658.0,137056.0,270728.0,212014.0,286733.0,0.6794425249099731,0.0
1701394.0,3155018.0,2766840.0,3890528.0,131098.0,258538.0,204122.0,273907.0,0.7410881519317627,0.0
1790603.0,3317334.0,2907488.0,4084949.0,137958.0,271259.0,212469.0,285369.0,0.7410881519317627,0.0
1794194.0,3324669.0,2916177.0,4101847.0,137169.0,273916.0,214930.0,288987.0,0.6794425249099731,0.0
1793914.0,3324966.0,2917308.0,4101095.0,138866.0,273730.0,213663.0,288833.0,0.7410881519317627,0.0
1792721.0,3320704.0,2912371.0,4091977.0,137935.0,272323.0,213876.0,287249.0,0.7410881519317627,0.0
1793608.0,3324499.0,2916130.0,4100863.0,137667.0,272067.0,214079.0,287560.0,0.7410881519317627,0.0
1795147.0,3326492.0,2917438.0,4103080.0,138255.0,273551.0,213838.0,288662.0,0.6794425249099731,0.0
1797970.0,3329002.0,2920264.0,4105771.0,138646.0,275051.0,215407.0,288135.0,0.7410881519317627,0.0
1799496.0,3332135.0,2923663.0,4114745.0,138508.0,274871.0,215522.0,289795.0,0.7410881519317627,0.0
1795317.0,3326867.0,2916110.0,4101496.0,137936.0,274080.0,214154.0,288420.0,0.6794425249099731,0.0
1793227.0,3321135.0,2912197.0,4091898.0,138658.0,272928.0,214012.0,288686.0,0.7410881519317627,0.0
1790946.0,3319686.0,2909895.0,4087848.0,138598.0,273346.0,214370.0,286614.0,0.8130081295967102,0.0
1787575.0,3310453.0,2901671.0,4077783.0,136982.0,271115.0,211876.0,285253.0,0.7410881519317627,0.0
1784638.0,3305056.0,2896927.0,4069535.0,137207.0,270271.0,211431.0,284309.0,0.7410881519317627,0.0
1794569.0,3322577.0,2914394.0,4097980.0,138806.0,275403.0,215291.0,289142.0,0.7410881519317627,0.0
1797010.0,3327060.0,2919265.0,4105038.0,138742.0,274382.0,215624.0,289557.0,0.7410881519317627,0.0
1798916.0,3329873.0,2920923.0,4108072.0,139338.0,274079.0,214481.0,287915.0,0.7410881519317627,0.0
1805487.0,3341658.0,2934278.0,4130459.0,140466.0,275789.0,218109.0,291197.0,0.8130081295967102,0.0
1804739.0,3340736.0,2934325.0,4130584.0,140708.0,274969.0,217078.0,290834.0,0.8130081295967102,0.0
1809078.0,3346234.0,2939216.0,4138826.0,139591.0,275041.0,215736.0,291467.0,0.7410881519317627,0.0
1811657.0,3353757.0,2947630.0,4151967.0,141171.0,277658.0,217878.0,293114.0,0.7410881519317627,0.0
1811657.0,3353757.0,2947630.0,4151967.0,141171.0,277658.0,217878.0,293114.0,0.7410881519317627,0.0
1812751.0,3354939.0,2948001.0,4153156.0,141128.0,278459.0,219165.0,294037.0,0.7410881519317627,0.0
1808120.0,3344289.0,2935755.0,4134068.0,141501.0,278891.0,218934.0,293673.0,0.7410881519317627,0.0
1805803.0,3341158.0,2933980.0,4130435.0,141812.0,278759.0,218514.0,293266.0,0.8130081295967102,0.0
1802753.0,3334753.0,2927541.0,4118408.0,141052.0,277777.0,217581.0,291921.0,0.7410881519317627,0.0
1804214.0,3338096.0,2927691.0,4117426.0,142329.0,279436.0,218617.0,293635.0,0.8130081295967102,0.0
1807257.0,3342557.0,2932048.0,4125382.0,143065.0,280495.0,220067.0,294695.0,0.8130081295967102,0.0
1804448.0,3335123.0,2925051.0,4111608.0,143691.0,279864.0,219191.0,294451.0,0.8130081295967102,0.0
1803567.0,3338982.0,2927447.0,4112654.0,141969.0,279471.0,218873.0,293704.0,0.7410881519317627,0.0
1803419.0,3336925.0,2925890.0,4110021.0,143233.0,280180.0,218644.0,293972.0,0.8130081295967102,0.0
1800676.0,3329637.0,2917351.0,4094981.0,142331.0,278885.0,216894.0,290493.0,0.8130081295967102,0.0
1799102.0,3327911.0,2914023.0,4091976.0,141641.0,278063.0,216948.0,290280.0,0.8130081295967102,0.0
1803873.0,3336377.0,2925881.0,4110174.0,142028.0,279032.0,219148.0,291834.0,0.8130081295967102,0.0
1800915.0,3330794.0,2919366.0,4100645.0,141594.0,278643.0,216122.0,289192.0,0.8130081295967102,0.0
1799932.0,3326881.0,2914313.0,4091528.0,141457.0,277909.0,216405.0,287961.0,0.8130081295967102,0.0
1800186.0,3329915.0,2918668.0,4098408.0,141634.0,278806.0,218132.0,290408.0,0.8130081295967102,0.0
1799171.0,3325865.0,2913052.0,4090592.0,141593.0,276456.0,215891.0,287947.0,0.898004412651062,0.0
1794564.0,3319530.0,2906326.0,4079662.0,141499.0,274905.0,214384.0,285511.0,0.898004412651062,0.0
1797083.0,3322214.0,2908773.0,4081560.0,142763.0,275886.0,214797.0,286559.0,1.0,0.0
1709245.0,3161654.0,2769325.0,3886736.0,135282.0,263574.0,205531.0,273253.0,1.0,0.0
1799339.0,3328408.0,2914720.0,4088886.0,141905.0,277891.0,216467.0,287510.0,0.898004412651062,0.0
1799575.0,3325526.0,2912879.0,4085425.0,142061.0,277113.0,216159.0,285499.0,1.0,0.0
1801057.0,3329909.0,2915452.0,4093589.0,142556.0,278027.0,216087.0,287758.0,0.898004412651062,0.0
1799033.0,3325291.0,2911952.0,4084996.0,141341.0,276398.0,214719.0,286835.0,0.8130081295967102,0.0
1798857.0,3324487.0,2912464.0,4084407.0,141440.0,276997.0,215936.0,286087.0,0.898004412651062,0.0
1803468.0,3331091.0,2919001.0,4095867.0,142348.0,278406.0,217461.0,287233.0,0.898004412651062,0.0
1804225.0,3332057.0,2920150.0,4097282.0,142867.0,278653.0,217049.0,288532.0,0.898004412651062,0.0
1798790.0,3322541.0,2909396.0,4077034.0,141417.0,277004.0,215615.0,285276.0,0.898004412651062,0.0
1795706.0,3317679.0,2902418.0,4066681.0,141742.0,275313.0,213814.0,283299.0,1.0,0.0
1800471.0,3327863.0,2914396.0,4084422.0,141827.0,277646.0,215937.0,285157.0,0.898004412651062,0.0
1801906.0,3329426.0,2915181.0,4088298.0,142901.0,277541.0,216319.0,286076.0,1.0,0.0
1804904.0,3332998.0,2917877.0,4093874.0,144087.0,278752.0,217382.0,287977.0,1.0,0.0
1805052.0,3335522.0,2922231.0,4100223.0,143779.0,279316.0,218040.0,288633.0,1.0,0.0
1802346.0,3328244.0,2915278.0,4092151.0,142988.0,277621.0,216555.0,288168.0,0.898004412651062,0.0
1804415.0,3334394.0,2921836.0,4102022.0,143429.0,279526.0,217999.0,289340.0,1.0,0.0
1807965.0,3338508.0,2928059.0,4112629.0,144390.0,279759.0,219041.0,292115.0,0.898004412651062,0.0
1805642.0,3334692.0,2924690.0,4105367.0,144495.0,280050.0,218972.0,290728.0,1.0,0.0
1824034.0,3368364.0,2960411.0,4167993.0,146954.0,287140.0,223872.0,299099.0,0.8130081295967102,0.0
1826724.0,3372329.0,2962994.0,4172992.0,146938.0,286383.0,225957.0,301172.0,0.898004412651062,0.0
1817489.0,3354842.0,2943485.0,4136606.0,145256.0,283005.0,219941.0,293806.0,0.898004412651062,0.0
1814434.0,3349610.0,2938580.0,4127887.0,145720.0,281849.0,221151.0,293751.0,1.0,0.0
1805404.0,3335267.0,2923149.0,4099560.0,144138.0,279906.0,218497.0,290554.0,0.898004412651062,0.0
1800252.0,3324836.0,2909443.0,4078506.0,143529.0,277244.0,215837.0,286443.0,1.0,0.0
1799393.0,3324476.0,2909813.0,4078515.0,142341.0,278451.0,215660.0,286535.0,0.898004412651062,0.0
1795369.0,3315405.0,2901757.0,4064649.0,142289.0,276113.0,214697.0,284208.0,1.0,0.0
1792596.0,3310934.0,2894698.0,4052210.0,141980.0,276249.0,214708.0,283899.0,1.0,0.0
1794896.0,3315705.0,2901315.0,4062333.0,141951.0,277662.0,216336.0,284827.0,0.898004412651062,0.0
1791696.0,3307769.0,2891638.0,4045431.0,142403.0,277119.0,214840.0,282810.0,1.0,0.0
1794460.0,3312749.0,2896203.0,4054625.0,142591.0,277140.0,215582.0,284812.0,1.0,0.0
1793085.0,3310429.0,2894465.0,4051231.0,143536.0,276792.0,215082.0,284291.0,1.0,0.0
1788009.0,3301119.0,2883548.0,4032665.0,141355.0,275938.0,215001.0,282831.0,1.0,0.0
1788009.0,3301119.0,2883548.0,4032665.0,141355.0,275938.0,215001.0,282831.0,1.0,0.0
1788342.0,3302466.0,2886517.0,4035767.0,140487.0,276576.0,214521.0,281749.0,0.898004412651062,0.0
1819006.0,3358714.0,2940703.0,4120643.0,143912.0,281121.0,218679.0,291904.0,0.8130081295967102,0.0
1820444.0,3359778.0,2940584.0,4120983.0,143971.0,281981.0,219697.0,292161.0,0.8130081295967102,0.0
1822546.0,3364827.0,2948994.0,4136236.0,144288.0,282713.0,220541.0,295495.0,0.7410881519317627,0.0
1728685.0,3190004.0,2793043.0,3914176.0,136889.0,266969.0,207599.0,276653.0,0.8130081295967102,0.0
1825495.0,3371028.0,2954632.0,4143547.0,145338.0,284055.0,222298.0,296754.0,0.8130081295967102,0.0
1732127.0,3196690.0,2800242.0,3926977.0,138283.0,268295.0,209349.0,279381.0,0.898004412651062,0.0
1821698.0,3363315.0,2944419.0,4128108.0,144183.0,282791.0,220313.0,292468.0,0.8130081295967102,0.0
1822431.0,3364369.0,2948141.0,4134408.0,145544.0,282276.0,221268.0,295258.0,0.898004412651062,0.0
1819303.0,3358357.0,2941112.0,4122631.0,144996.0,281741.0,219705.0,293592.0,0.898004412651062,0.0
1823597.0,3366128.0,2950814.0,4138868.0,145293.0,283972.0,221918.0,296632.0,0.8130081295967102,0.0
1815656.0,3352145.0,2935951.0,4112738.0,145270.0,282071.0,220233.0,293809.0,0.898004412651062,0.0
1815990.0,3352601.0,2936027.0,4115866.0,144449.0,283052.0,221305.0,294692.0,0.8130081295967102,0.0
1811389.0,3343873.0,2927741.0,4101579.0,144574.0,281114.0,219688.0,293279.0,0.8130081295967102,0.0
1808373.0,3339000.0,2920712.0,4091113.0,144309.0,280877.0,220057.0,292053.0,1.0,0.0
1805003.0,3331596.0,2915188.0,4080597.0,143417.0,280451.0,218544.0,289834.0,0.898004412651062,0.0
1799158.0,3322780.0,2904787.0,4065793.0,143880.0,278516.0,216741.0,289558.0,0.898004412651062,0.0
1805517.0,3334373.0,2917733.0,4086845.0,143474.0,280041.0,218706.0,291535.0,0.8130081295967102,0.0
1800484.0,3325108.0,2906667.0,4068410.0,141968.0,277570.0,217620.0,289397.0,0.8130081295967102,0.0
1802502.0,3326676.0,2908655.0,4069990.0,142693.0,279412.0,216980.0,288066.0,0.8130081295967102,0.0
1712794.0,3160208.0,2763773.0,3867318.0,135620.0,264682.0,206079.0,273961.0,0.8130081295967102,0.0
1799619.0,3322082.0,2902953.0,4058540.0,142903.0,277800.0,217444.0,286798.0,1.0,0.0
1803173.0,3328677.0,2910898.0,4073379.0,142814.0,278806.0,216243.0,288126.0,0.8130081295967102,0.0
1801600.0,3322801.0,2903537.0,4060682.0,142788.0,278043.0,216516.0,286655.0,0.898004412651062,0.0
1806616.0,3333161.0,2916843.0,4083024.0,143083.0,279723.0,218891.0,289435.0,0.898004412651062,0.0
1804062.0,3329756.0,2912236.0,4075473.0,142104.0,278890.0,218171.0,289377.0,0.8130081295967102,0.0
1806213.0,3331536.0,2914185.0,4079028.0,143814.0,280455.0,218521.0,289841.0,0.898004412651062,0.0
1805113.0,3331457.0,2914959.0,4080475.0,143624.0,279418.0,218738.0,291289.0,0.898004412651062,0.0
1713793.0,3161809.0,2765691.0,3869181.0,136977.0,267254.0,207627.0,275020.0,0.898004412651062,0.0
1804609.0,3329870.0,2912713.0,4079487.0,142935.0,279712.0,218111.0,289575.0,0.8130081295967102,0.0
1803774.0,3327122.0,2910393.0,4073710.0,143552.0,279048.0,217870.0,290232.0,0.898004412651062,0.0
1809163.0,3338703.0,2922683.0,4095458.0,144533.0,282358.0,220169.0,292630.0,0.8130081295967102,0.0
1803684.0,3330536.0,2912833.0,4077089.0,142867.0,280153.0,218553.0,290581.0,0.8130081295967102,0.0
1805817.0,3332849.0,2916661.0,4084930.0,143692.0,280990.0,218790.0,291217.0,0.8130081295967102,0.0
1802576.0,3328325.0,2911879.0,4077077.0,143150.0,279056.0,217753.0,289727.0,0.898004412651062,0.0
1805896.0,3331759.0,2915109.0,4081694.0,143410.0,281101.0,219590.0,290256.0,0.898004412651062,0.0
1804370.0,3329863.0,2912681.0,4079710.0,143267.0,279893.0,216818.0,289374.0,0.8130081295967102,0.0
1711582.0,3157471.0,2761806.0,3862913.0,135791.0,264956.0,205812.0,273867.0,0.8130081295967102,0.0
1805540.0,3332818.0,2915959.0,4083241.0,143070.0,280256.0,217574.0,288993.0,0.8130081295967102,0.0
1800628.0,3323995.0,2904727.0,4063495.0,142629.0,277349.0,215853.0,286822.0,0.898004412651062,0.0
1801490.0,3326231.0,2907011.0,4067215.0,141935.0,278038.0,216159.0,287391.0,0.8130081295967102,0.0
1806059.0,3336057.0,2917550.0,4084939.0,143326.0,278781.0,217534.0,289895.0,0.898004412651062,0.0
1806931.0,3334391.0,2915584.0,4080862.0,143018.0,279247.0,217208.0,288526.0,0.8130081295967102,0.0
1806931.0,3334391.0,2915584.0,4080862.0,143018.0,279247.0,217208.0,288526.0,0.8130081295967102,0.0
1808376.0,3338028.0,2921430.0,4089708.0,144198.0,279409.0,218427.0,290249.0,0.898004412651062,0.0
1808260.0,3337848.0,2920873.0,4093219.0,144410.0,279496.0,217944.0,291579.0,0.898004412651062,0.0
1811068.0,3341423.0,2925758.0,4101384.0,143290.0,279893.0,218332.0,292176.0,0.8130081295967102,0.0
1811496.0,3346610.0,2931305.0,4110644.0,144356.0,281894.0,219667.0,292678.0,0.8130081295967102,0.0
1809016.0,3339329.0,2924241.0,4097457.0,144268.0,280813.0,217909.0,291708.0,0.8130081295967102,0.0
1810766.0,3343124.0,2927800.0,4106216.0,143306.0,280702.0,219724.0,292108.0,0.8130081295967102,0.0
1810360.0,3341694.0,2926333.0,4103405.0,144044.0,279991.0,218212.0,292211.0,0.8130081295967102,0.0
1807137.0,3335963.0,2920973.0,4091429.0,143978.0,279178.0,219048.0,290342.0,1.0,0.0
1809816.0,3341230.0,2926352.0,4102438.0,142880.0,281186.0,219077.0,289686.0,0.898004412651062,0.0
1808560.0,3340384.0,2925918.0,4099845.0,142534.0,279988.0,217932.0,290815.0,0.8130081295967102,0.0
1813574.0,3348351.0,2930953.0,4110152.0,144167.0,281649.0,219502.0,292317.0,0.8130081295967102,0.0
1812608.0,3349568.0,2932398.0,4111377.0,143097.0,280221.0,218154.0,291807.0,0.8130081295967102,0.0
1811221.0,3345739.0,2929127.0,4104680.0,143186.0,279999.0,218892.0,290113.0,0.898004412651062,0.0
1810764.0,3344480.0,2927130.0,4098875.0,143260.0,279428.0,218048.0,290471.0,0.8130081295967102,0.0
1814139.0,3349746.0,2932939.0,4110979.0,143571.0,280168.0,219525.0,292375.0,0.8130081295967102,0.0
1809578.0,3343330.0,2926348.0,4099271.0,142771.0,279549.0,218254.0,291370.0,0.8130081295967102,0.0
1809506.0,3341648.0,2924597.0,4096278.0,143109.0,278775.0,218047.0,290975.0,0.8130081295967102,0.0
1721364.0,3179530.0,2783240.0,3901456.0,136436.0,266337.0,207788.0,278733.0,0.8130081295967102,0.0
1807208.0,3335988.0,2918335.0,4086736.0,142667.0,278357.0,217689.0,291202.0,0.8130081295967102,0.0
1805881.0,3337330.0,2920913.0,4091888.0,142727.0,278439.0,218043.0,290376.0,0.8130081295967102,0.0
1806476.0,3336503.0,2920520.0,4090853.0,143241.0,278152.0,217845.0,290318.0,0.898004412651062,0.0
1811342.0,3346417.0,2929828.0,4108674.0,142919.0,280364.0,219914.0,293222.0,0.8130081295967102,0.0
1803790.0,3332910.0,2914941.0,4085341.0,141618.0,278058.0,217444.0,289753.0,0.8130081295967102,0.0
1808228.0,3340200.0,2923695.0,4098356.0,141621.0,278385.0,216828.0,290219.0,0.7410881519317627,0.0
1811274.0,3346302.0,2930755.0,4107652.0,143030.0,279401.0,218619.0,292320.0,0.8130081295967102,0.0
1811274.0,3346302.0,2930755.0,4107652.0,143030.0,279401.0,218619.0,292320.0,0.8130081295967102,0.0
1809835.0,3346048.0,2929545.0,4105431.0,141489.0,278042.0,217730.0,290903.0,0.8130081295967102,0.0
1814330.0,3353584.0,2937360.0,4119422.0,143383.0,280545.0,218872.0,292975.0,0.8130081295967102,0.0
1809752.0,3344424.0,2926352.0,4098861.0,142623.0,278479.0,216930.0,289799.0,0.8130081295967102,0.0
1812652.0,3349729.0,2931438.0,4108637.0,143105.0,278643.0,217901.0,291987.0,0.8130081295967102,0.0
1812534.0,3349601.0,2931421.0,4110602.0,142565.0,279721.0,218428.0,290366.0,0.8130081295967102,0.0
1812654.0,3350061.0,2932858.0,4109530.0,142295.0,278876.0,217792.0,291228.0,0.8130081295967102,0.0
1820370.0,3362808.0,2947895.0,4138809.0,143413.0,281229.0,219276.0,294513.0,0.7410881519317627,0.0
1803082.0,3334321.0,2923464.0,4102685.0,140250.0,275122.0,215089.0,289929.0,0.7410881519317627,0.0
1798165.0,3328593.0,2915265.0,4090139.0,138124.0,272052.0,212987.0,287007.0,0.7410881519317627,0.0
1804893.0,3340990.0,2928978.0,4112497.0,140073.0,275818.0,215057.0,290206.0,0.7410881519317627,0.0
1805771.0,3342223.0,2931932.0,4117511.0,141074.0,275713.0,216451.0,291867.0,0.7410881519317627,0.0
1797077.0,3326882.0,2916638.0,4092186.0,137708.0,272498.0,214548.0,287726.0,0.7410881519317627,0.0
1797172.0,3324607.0,2912706.0,4087837.0,139147.0,272595.0,214454.0,286877.0,0.8130081295967102,0.0
1798255.0,3328241.0,2917265.0,4095117.0,139259.0,273332.0,215696.0,289067.0,0.8130081295967102,0.0
1797812.0,3326268.0,2914872.0,4090845.0,139562.0,273699.0,213656.0,288900.0,0.7410881519317627,0.0
1797812.0,3326268.0,2914872.0,4090845.0,139562.0,273699.0,213656.0,288900.0,0.7410881519317627,0.0
1801922.0,3334555.0,2922303.0,4102751.0,140635.0,275983.0,215671.0,290152.0,0.7410881519317627,0.0
1804994.0,3338494.0,2928087.0,4112218.0,141397.0,276740.0,218583.0,293779.0,0.8130081295967102,0.0
1807155.0,3343564.0,2932650.0,4122187.0,141596.0,278318.0,217972.0,293912.0,0.7410881519317627,0.0
1809437.0,3345575.0,2937782.0,4128509.0,141318.0,277973.0,218124.0,294895.0,0.6794425249099731,0.0
1802587.0,3335785.0,2925679.0,4108873.0,140086.0,276137.0,217446.0,292391.0,0.7410881519317627,0.0
1800340.0,3331533.0,2919728.0,4099050.0,140269.0,275423.0,216235.0,290841.0,0.7410881519317627,0.0
1799034.0,3328931.0,2917081.0,4096406.0,139578.0,275321.0,215053.0,290906.0,0.6794425249099731,0.0
1797668.0,3324504.0,2913072.0,4090287.0,139767.0,274429.0,215098.0,289207.0,0.7410881519317627,0.0
1796882.0,3323919.0,2911337.0,4088443.0,140654.0,276204.0,215603.0,290324.0,0.7410881519317627,0.0
1800273.0,3331519.0,2921547.0,4103979.0,140836.0,276352.0,217078.0,293408.0,0.7410881519317627,0.0
1801207.0,3331919.0,2923997.0,4107256.0,140327.0,276513.0,216955.0,294082.0,0.6794425249099731,0.0
1798091.0,3325727.0,2915465.0,4094756.0,140574.0,275492.0,216368.0,292009.0,0.7410881519317627,0.0
1710454.0,3165211.0,2776478.0,3902153.0,133399.0,263264.0,206801.0,278640.0,0.7410881519317627,0.0
1799995.0,3329431.0,2921791.0,4107956.0,140873.0,276710.0,217293.0,292952.0,0.7410881519317627,0.0
1798123.0,3329555.0,2921580.0,4106900.0,140132.0,275827.0,216988.0,292340.0,0.7410881519317627,0.0
1799646.0,3331935.0,2924101.0,4113190.0,140366.0,275975.0,218876.0,293793.0,0.8130081295967102,0.0
1800560.0,3330958.0,2925220.0,4115411.0,140743.0,277094.0,217389.0,294308.0,0.6794425249099731,0.0
1802814.0,3334863.0,2928333.0,4120043.0,142280.0,277378.0,219391.0,294758.0,0.8130081295967102,0.0
1801359.0,3332392.0,2926572.0,4117643.0,141289.0,278430.0,219617.0,296109.0,0.7410881519317627,0.0
1789076.0,3311209.0,2903792.0,4080959.0,139527.0,274528.0,215190.0,290061.0,0.7410881519317627,0.0
1788542.0,3311633.0,2908351.0,4091693.0,139985.0,275332.0,217432.0,293847.0,0.7410881519317627,0.0
1780300.0,3294793.0,2889693.0,4060929.0,139219.0,273914.0,216257.0,292665.0,0.6794425249099731,0.0
1777578.0,3291368.0,2886738.0,4056101.0,138769.0,274582.0,216953.0,292496.0,0.6794425249099731,0.0
1775916.0,3288229.0,2881624.0,4048884.0,139009.0,274706.0,216657.0,292797.0,0.6794425249099731,0.0
1772065.0,3280706.0,2873984.0,4034791.0,139315.0,273887.0,215527.0,292035.0,0.6794425249099731,0.0
1772065.0,3280706.0,2873984.0,4034791.0,139315.0,273887.0,215527.0,292035.0,0.6794425249099731,0.0
1776794.0,3290191.0,2885666.0,4056085.0,138069.0,274043.0,216657.0,291424.0,0.6794425249099731,0.0
1777109.0,3288678.0,2884952.0,4054121.0,138331.0,274581.0,217162.0,292028.0,0.6794425249099731,0.0
1772345.0,3280634.0,2875569.0,4036865.0,137952.0,272893.0,213968.0,288572.0,0.6794425249099731,0.0
1771018.0,3280455.0,2876180.0,4037366.0,137202.0,271403.0,214360.0,287949.0,0.7410881519317627,0.0
1776735.0,3287881.0,2883353.0,4052558.0,138564.0,272199.0,214109.0,288765.0,0.7410881519317627,0.0
1776697.0,3291740.0,2888185.0,4058682.0,137238.0,271703.0,213003.0,287492.0,0.6794425249099731,0.0
1794361.0,3320829.0,2922878.0,4120101.0,140117.0,276994.0,218778.0,295214.0,0.7410881519317627,0.0
1795136.0,3322107.0,2917818.0,4107337.0,140911.0,278297.0,219695.0,295675.0,0.7410881519317627,0.0
1796655.0,3324728.0,2924476.0,4119432.0,139847.0,277670.0,218601.0,296530.0,0.6794425249099731,0.0
1793849.0,3318011.0,2915329.0,4100817.0,140692.0,278184.0,218182.0,294401.0,0.6794425249099731,0.0
1786043.0,3305873.0,2905398.0,4087928.0,139711.0,275020.0,215905.0,293214.0,0.6794425249099731,0.0
1794486.0,3322518.0,2920089.0,4112550.0,140038.0,277026.0,218018.0,295922.0,0.6794425249099731,0.0
1787542.0,3310289.0,2906304.0,4082436.0,139852.0,276051.0,217386.0,290924.0,0.7410881519317627,0.0
1782565.0,3300761.0,2892231.0,4056427.0,138584.0,273619.0,213759.0,286856.0,0.7410881519317627,0.0
1788940.0,3310685.0,2903374.0,4075778.0,139690.0,274681.0,215989.0,289680.0,0.7410881519317627,0.0
1788256.0,3309437.0,2901226.0,4072348.0,139919.0,274611.0,217220.0,290710.0,0.8130081295967102,0.0
1788932.0,3306455.0,2896160.0,4061705.0,140009.0,274165.0,215299.0,290077.0,0.7410881519317627,0.0
1783751.0,3300801.0,2890865.0,4051738.0,139122.0,273714.0,214953.0,286857.0,0.8130081295967102,0.0
1784997.0,3305195.0,2903437.0,4079316.0,138631.0,272751.0,213948.0,288871.0,0.7410881519317627,0.0
1795683.0,3322529.0,2916731.0,4096818.0,139789.0,276150.0,215877.0,292219.0,0.6794425249099731,0.0
1800938.0,3328158.0,2916570.0,4090355.0,141095.0,276725.0,215080.0,289785.0,0.7410881519317627,0.0
1789023.0,3308330.0,2899189.0,4062652.0,137086.0,269939.0,212227.0,282961.0,0.8130081295967102,0.0
1789137.0,3305116.0,2894556.0,4051963.0,136082.0,266539.0,208380.0,279879.0,0.7410881519317627,0.0
1796491.0,3322728.0,2915025.0,4090670.0,136805.0,268966.0,210576.0,284020.0,0.7410881519317627,0.0
1796491.0,3322728.0,2915025.0,4090670.0,136805.0,268966.0,210576.0,284020.0,0.7410881519317627,0.0
1789095.0,3307894.0,2906706.0,4082796.0,136719.0,269964.0,212553.0,288064.0,0.6794425249099731,0.0
1791193.0,3309352.0,2892281.0,4046479.0,139079.0,275204.0,213183.0,286004.0,0.6794425249099731,0.0
1795127.0,3311910.0,2894022.0,4046171.0,141852.0,276278.0,215530.0,288000.0,0.8130081295967102,0.0
1810584.0,3341503.0,2927594.0,4106605.0,140963.0,275168.0,215456.0,293616.0,0.6794425249099731,0.0
1829110.0,3374516.0,2958768.0,4160073.0,146085.0,286090.0,226021.0,309391.0,0.6260162591934204,0.0
1803363.0,3328049.0,2918797.0,4101220.0,145262.0,284376.0,223645.0,305709.0,0.6260162591934204,73.0
1762803.0,3262542.0,2876051.0,4051835.0,143201.0,281070.0,222559.0,304676.0,0.6794425249099731,73.0
1801443.0,3325376.0,2924622.0,4117480.0,143664.0,283246.0,224157.0,302591.0,0.6794425249099731,73.0
1799555.0,3320243.0,2913751.0,4092109.0,145863.0,287293.0,227000.0,304860.0,0.7410881519317627,73.0
1805855.0,3332319.0,2923573.0,4109569.0,147068.0,290428.0,229114.0,308836.0,0.6794425249099731,75.0
1798282.0,3322089.0,2911821.0,4090448.0,143519.0,283216.0,224256.0,304572.0,0.6260162591934204,75.0
1801056.0,3326275.0,2912816.0,4087259.0,144896.0,285950.0,225770.0,306358.0,0.6260162591934204,75.0
1806284.0,3333218.0,2918954.0,4096063.0,146083.0,286493.0,226515.0,304347.0,0.7410881519317627,75.0
1786460.0,3300819.0,2888859.0,4049002.0,140577.0,277617.0,218763.0,296474.0,0.6260162591934204,75.0
1797682.0,3319190.0,2910977.0,4082901.0,141680.0,275480.0,217407.0,293318.0,0.7410881519317627,75.0
1811176.0,3344120.0,2934155.0,4127533.0,142364.0,281032.0,221484.0,301176.0,0.6260162591934204,76.0
1802165.0,3328087.0,2915877.0,4093385.0,141548.0,279186.0,220271.0,298812.0,0.6794425249099731,76.0
1795126.0,3316034.0,2901037.0,4064201.0,140147.0,277877.0,217558.0,293906.0,0.6260162591934204,83.0
1845851.0,3418829.0,2966607.0,4141400.0,148311.0,286706.0,218597.0,289032.0,1.0,69.0
1851046.0,3430000.0,2979703.0,4160741.0,148169.0,287141.0,219960.0,289787.0,1.0,71.0
1858394.0,3443259.0,2992369.0,4184021.0,150599.0,290121.0,221851.0,294326.0,1.0,71.0
1863464.0,3453263.0,3001660.0,4196349.0,150460.0,288531.0,220855.0,293399.0,1.0,73.0
1865725.0,3457916.0,3005958.0,4208655.0,150454.0,290811.0,222440.0,293267.0,1.0,73.0
1867112.0,3463180.0,3010515.0,4212703.0,149255.0,288428.0,221287.0,291743.0,1.0,73.0
1873140.0,3472604.0,3019274.0,4230745.0,151009.0,290108.0,222267.0,294835.0,1.0,73.0
1876847.0,3479131.0,3028779.0,4245858.0,150724.0,291173.0,223136.0,296028.0,1.0,75.0
1876788.0,3482142.0,3029193.0,4245237.0,152221.0,291479.0,223484.0,296512.0,1.0,75.0
1877935.0,3482759.0,3031357.0,4249184.0,151541.0,290676.0,223050.0,297379.0,1.0,76.0
1878073.0,3484082.0,3032081.0,4254340.0,150626.0,291375.0,224003.0,297267.0,1.0,76.0
1880433.0,3489686.0,3036876.0,4259218.0,151341.0,291064.0,224556.0,297470.0,1.0,77.0
1885759.0,3499713.0,3047751.0,4278537.0,152254.0,294657.0,225825.0,299429.0,1.0,77.0
1885398.0,3497854.0,3047216.0,4278498.0,151574.0,292128.0,225485.0,298563.0,1.0,78.0
1885218.0,3496977.0,3045486.0,4273282.0,150814.0,291826.0,225355.0,298244.0,1.0,78.0
1885218.0,3496977.0,3045486.0,4273282.0,150814.0,291826.0,225355.0,298244.0,1.0,78.0
1886758.0,3500148.0,3048542.0,4282040.0,151646.0,292079.0,224211.0,298764.0,1.0,78.0
1889770.0,3505761.0,3054730.0,4292203.0,150562.0,292132.0,224091.0,299786.0,1.0,78.0
1887167.0,3503097.0,3051811.0,4285447.0,150327.0,291679.0,224536.0,298743.0,1.0,78.0
1890277.0,3506395.0,3055297.0,4294219.0,151215.0,292605.0,224210.0,299938.0,1.0,78.0
1886696.0,3502234.0,3051413.0,4286597.0,151003.0,291228.0,224515.0,298583.0,1.0,78.0
1888571.0,3504633.0,3052719.0,4289376.0,150318.0,291566.0,223951.0,298402.0,1.0,78.0
1884676.0,3497960.0,3046681.0,4278747.0,148697.0,289851.0,223864.0,296986.0,1.0,78.0
1882110.0,3494826.0,3043156.0,4272807.0,148948.0,289262.0,221516.0,295394.0,1.0,78.0
1871203.0,3476578.0,3026355.0,4247109.0,148640.0,287963.0,221514.0,296308.0,1.0,78.0
1899554.0,3528867.0,3073647.0,4317154.0,148958.0,291251.0,222396.0,297366.0,0.898004412651062,77.0
1936030.0,3596818.0,3143507.0,4436365.0,154476.0,299218.0,230831.0,311897.0,1.0,77.0
1935076.0,3596165.0,3146451.0,4443107.0,154476.0,301018.0,233981.0,315699.0,0.898004412651062,75.0
1900761.0,3534731.0,3091364.0,4358119.0,152505.0,298259.0,231781.0,314384.0,0.7410881519317627,75.0
1889003.0,3513041.0,3072539.0,4332865.0,152063.0,298096.0,231624.0,314722.0,0.7410881519317627,73.0
1877483.0,3495030.0,3057038.0,4311348.0,151166.0,296352.0,229496.0,314212.0,0.6794425249099731,73.0
1781564.0,3317723.0,2900268.0,4087632.0,142785.0,280932.0,218446.0,297081.0,0.7410881519317627,72.0
1876362.0,3493831.0,3054041.0,4306879.0,150217.0,296077.0,230559.0,313999.0,0.6794425249099731,72.0
1868055.0,3477221.0,3038200.0,4280209.0,149425.0,294084.0,228062.0,310226.0,0.7410881519317627,72.0
1853957.0,3451023.0,3011878.0,4237018.0,146136.0,288340.0,223074.0,302608.0,0.6794425249099731,72.0
1845113.0,3435864.0,2998583.0,4213871.0,145209.0,285867.0,220649.0,299610.0,0.7410881519317627,72.0
1854478.0,3452693.0,3010711.0,4231780.0,145245.0,288094.0,222320.0,301352.0,0.6794425249099731,72.0
1852230.0,3450843.0,3006958.0,4226486.0,146673.0,287125.0,221049.0,300836.0,0.7410881519317627,72.0
1862719.0,3468584.0,3022602.0,4247560.0,147243.0,288813.0,222159.0,300239.0,0.7410881519317627,72.0
1854017.0,3454396.0,3009311.0,4228162.0,144641.0,285633.0,220140.0,297490.0,0.7410881519317627,73.0
1856522.0,3457643.0,3011780.0,4229072.0,146156.0,286831.0,220611.0,296571.0,0.8130081295967102,73.0
1856522.0,3457643.0,3011780.0,4229072.0,146156.0,286831.0,220611.0,296571.0,0.8130081295967102,73.0
1861238.0,3466511.0,3020681.0,4243500.0,145672.0,287178.0,220841.0,297259.0,0.7410881519317627,73.0
1858994.0,3461241.0,3012999.0,4231947.0,145567.0,285919.0,218894.0,296717.0,0.7410881519317627,73.0
